Raman_shift(cm-1)	298.15K	323.15K	348.15K	373.15K	423.15K	473.15K	523.15K	573.15K	623.15K	673.15K	723.15K	773.15K	823.15K	873.15K	923.15K	973.15K	1023.15K
-702.213	223	-71	109	147	105	32	-138	46	-16	-220	-93	11	-50	120	90	649	602
-701.087	157	268	89	95	182	96	210	239	237	205	154	28	18	106	357	418	342
-699.961	261	130	71	215	22	57	2	59	-24	-56	-177	74	-40	27	211	294	287
-698.835	-14	-56	-74	-146	-56	4	-266	-95	-383	-42	-254	-318	-150	-163	82	421	564
-697.71	131	-99	192	138	160	115	35	59	-109	171	-95	234	-49	156	323	344	342
-696.585	203	151	53	35	111	176	45	177	113	143	7	-133	157	-23	230	421	401
-695.46	49	244	172	218	87	133	182	42	-54	18	88	132	-25	313	452	290	517
-694.335	132	212	169	42	295	84	59	-45	5	-45	105	215	63	181	352	374	420
-693.21	179	188	29	-88	23	76	-81	6	-149	-5	-44	-32	31	121	37	436	613
-692.086	-113	-21	149	-38	16	-136	-34	134	-213	-112	-121	-121	-142	104	176	418	348
-690.962	52	247	-37	83	164	97	149	21	-34	3	-31	198	133	320	340	666	520
-689.838	117	40	119	296	147	82	192	-34	100	138	110	105	-38	402	283	491	461
-688.714	-75	45	-108	-154	-3	-58	36	-245	-159	-90	-78	-138	-104	-74	321	572	519
-687.59	104	112	93	92	44	63	149	99	3	117	-87	-9	263	63	284	182	315
-686.467	150	107	208	-35	84	-93	-29	-55	38	-9	-34	-131	-97	148	325	284	427
-685.343	109	118	77	33	74	87	98	49	21	85	-32	-151	66	126	189	597	688
-684.221	191	29	212	199	79	-94	139	65	160	62	-13	185	-175	22	268	580	494
-683.098	102	222	21	-32	-62	59	-5	162	32	2	39	91	-34	170	243	373	469
-681.975	37	186	177	74	99	71	65	16	8	-4	175	88	-108	114	230	455	564
-680.853	179	125	81	250	131	54	54	143	85	17	46	33	-18	19	258	597	756
-679.731	274	298	180	241	154	-11	179	51	120	8	-37	113	171	196	362	384	512
-678.609	251	289	189	286	165	72	264	172	106	149	184	61	270	229	337	556	518
-677.487	170	193	154	168	-30	61	43	50	78	149	109	-82	107	186	186	487	557
-676.365	37	264	239	125	212	170	49	215	139	52	48	111	132	188	349	629	689
-675.244	68	-11	-53	0	200	59	-17	-12	19	-10	193	-44	107	54	278	477	624
-674.122	322	146	166	229	62	218	102	89	66	84	130	210	77	131	329	405	543
-673.001	95	216	-53	-16	177	33	23	22	-98	103	78	80	-34	174	353	555	609
-671.881	215	203	207	129	92	123	105	175	177	46	64	130	160	352	384	301	531
-670.76	139	217	122	22	-14	87	-19	-130	29	35	-174	54	56	133	171	508	693
-669.639	-97	-119	44	-117	-152	-130	-46	-8	-212	75	-145	-213	-33	-72	237	596	417
-668.519	404	424	403	275	304	188	379	321	261	194	258	257	178	405	488	558	592
-667.399	100	128	131	39	-25	-88	-5	1	-1	-134	-14	-86	35	191	198	470	434
-666.28	163	185	129	147	148	226	139	92	116	24	-9	53	47	229	415	538	545
-665.16	109	253	116	63	115	74	57	44	-4	82	9	92	-19	77	189	384	287
-664.04	99	166	215	130	309	138	28	-102	109	72	127	72	209	209	459	422	618
-662.921	232	177	113	47	89	132	-13	35	-54	215	-4	51	186	196	314	445	598
-661.802	159	169	121	185	151	92	8	-71	91	44	-32	11	28	23	424	468	596
-660.683	-65	127	14	52	-85	-211	-184	-126	-135	-51	-147	-100	-97	-84	149	462	460
-659.565	193	94	214	-17	100	142	46	123	126	68	187	144	215	282	393	508	615
-658.446	80	119	140	141	142	-86	42	10	31	1	-2	48	-49	176	277	556	670
-657.328	180	200	3	36	83	131	41	-53	-26	87	117	6	74	342	491	546	574
-656.21	36	103	161	87	69	-90	35	35	120	-1	35	48	0	131	280	426	328
-655.092	11	125	73	21	50	91	-193	6	-91	-72	-17	65	42	-4	249	555	555
-653.974	174	142	92	119	157	-45	-26	-100	34	53	-27	-79	-12	165	331	437	499
-652.857	-2	18	13	422	56	-83	59	-95	-57	-114	-92	-2	-41	52	266	409	457
-651.74	-8	8	57	49	-36	-76	-46	-94	-20	-30	107	-153	-69	89	327	483	670
-650.623	124	110	202	-11	133	-112	148	-66	-2	4	108	43	111	219	365	339	557
-649.506	200	320	225	180	59	70	166	148	76	116	133	-70	27	227	215	608	588
-648.389	108	72	61	75	-6	14	-43	-25	-59	-34	-50	-39	-45	32	297	449	582
-647.273	223	273	42	23	-6	153	45	101	0	1	111	31	32	268	392	420	494
-646.156	142	190	58	112	134	-55	25	-5	-1	-43	58	-33	96	160	349	513	546
-645.04	18	32	122	41	5	-56	-9	-97	-51	-89	-38	-80	-94	38	290	682	653
-643.924	102	104	149	99	196	52	-118	140	7	119	10	17	68	197	302	466	425
-642.809	169	215	183	162	86	46	110	45	-112	156	85	113	102	288	406	553	543
-641.693	84	21	-2	-60	-74	-103	-106	-76	-185	-10	-124	-194	-33	117	174	681	678
-640.578	174	217	171	154	147	-8	22	163	18	71	136	-10	-20	65	443	369	319
-639.463	123	144	84	95	38	10	-87	9	15	-91	-59	29	64	78	354	567	600
-638.348	204	160	117	9	309	99	1	15	74	124	73	-5	166	206	521	524	488
-637.233	56	67	-16	-10	39	-77	-51	-37	-96	-160	-99	-51	75	53	229	526	435
-636.119	182	126	75	17	172	78	60	28	-46	94	83	45	52	252	403	360	593
-635.004	226	239	225	71	6	-4	27	34	31	-29	30	55	52	144	418	552	611
-633.89	146	154	203	208	214	133	103	130	103	85	101	114	86	224	316	580	535
-632.776	7	-11	-83	-198	-59	-169	-58	-65	-165	-113	-120	-197	-90	-65	184	476	611
-631.663	129	135	59	24	66	61	75	151	46	74	-13	15	98	115	306	545	448
-630.549	245	241	221	188	294	185	178	280	126	196	181	71	201	242	510	627	567
-629.436	213	135	187	91	65	125	205	201	67	96	111	92	121	78	448	416	486
-628.323	143	100	125	-39	68	-93	-142	34	-33	87	27	110	33	162	297	415	447
-627.209	108	112	82	196	155	156	71	5	148	103	62	64	30	110	435	562	601
-626.097	10	70	34	88	79	67	-59	-33	-10	10	31	-32	63	61	336	541	456
-624.984	148	109	88	162	15	-70	59	38	-7	105	37	-73	87	164	389	580	639
-623.872	192	104	126	78	149	83	217	183	12	100	39	42	105	180	373	492	536
-622.76	102	145	75	147	129	136	78	-90	-16	-55	39	-171	3	144	313	411	505
-621.648	183	211	-36	111	102	32	4	108	6	156	67	33	81	172	457	572	652
-620.536	106	4	78	-20	21	-8	9	42	-133	-79	-23	-47	-79	30	275	641	464
-619.424	-5	73	48	53	9	7	42	47	-112	36	81	17	-98	73	231	503	705
-618.313	31	67	-29	-7	73	-15	5	-73	-44	-38	-22	-80	-58	94	226	609	635
-617.202	127	132	69	78	56	71	38	24	73	77	-14	-60	111	121	365	543	559
-616.091	82	142	76	-12	-3	-29	66	-28	-158	-35	13	-52	72	213	357	528	468
-614.98	286	243	234	225	266	98	273	122	193	267	79	160	191	210	505	651	684
-613.87	151	138	109	6	-12	-32	2	-52	64	23	-62	-36	32	152	308	341	478
-612.759	200	205	263	140	48	102	212	84	142	68	119	84	142	328	537	687	571
-611.649	19	173	63	77	14	49	47	-80	68	-4	83	61	16	65	320	515	620
-610.539	219	257	194	147	188	98	62	160	118	272	237	151	206	339	462	550	515
-609.429	297	259	125	178	125	149	105	-24	106	111	230	91	138	175	476	513	400
-608.32	212	107	73	49	164	89	29	45	61	60	89	19	-6	113	391	643	603
-607.21	190	232	163	140	222	73	111	-13	40	137	80	119	102	199	241	476	633
-606.101	284	326	276	208	149	109	258	109	106	167	92	176	33	249	479	551	567
-604.992	202	74	183	20	74	165	118	-49	10	17	-76	70	-10	167	385	662	660
-603.883	152	280	231	206	203	120	99	189	17	138	166	-30	161	279	510	554	605
-602.775	228	213	10	-2	120	27	-106	2	24	-9	96	-7	13	204	257	605	805
-601.666	122	63	70	-24	-15	-4	132	43	35	45	68	-5	-15	86	278	523	640
-600.558	-14	139	-15	3	-24	-71	-10	-98	-24	21	66	-69	-25	-1	279	572	677
-599.45	184	333	174	54	159	215	183	101	117	141	190	17	68	240	406	717	773
-598.342	294	230	169	122	57	134	112	77	81	51	-69	151	137	178	276	630	587
-597.235	365	288	259	213	243	274	193	149	187	267	152	218	240	281	393	612	586
-596.127	112	129	81	85	63	2	89	-48	-61	-91	78	-37	117	92	376	641	510
-595.02	193	129	92	147	116	100	133	51	20	27	23	65	143	156	496	555	734
-593.913	191	189	103	96	153	164	79	71	45	237	43	17	78	176	459	578	663
-592.806	58	113	110	15	-18	39	56	-93	3	67	-48	-59	17	156	261	481	467
-591.699	287	342	210	272	271	200	180	97	130	193	185	166	122	269	413	485	581
-590.593	-4	62	-1	82	-26	72	31	-16	-1	-48	136	-54	-23	80	293	688	582
-589.487	110	114	65	158	-42	36	122	47	26	-31	22	50	-3	125	410	627	792
-588.381	135	95	55	66	25	-16	-72	31	21	36	64	46	92	114	444	627	588
-587.275	228	196	137	105	107	111	91	-26	116	-1	19	30	158	232	422	510	508
-586.169	170	162	185	62	115	9	74	47	-48	15	-74	-48	68	299	445	591	625
-585.064	265	209	228	102	206	96	110	138	82	136	148	49	79	279	466	595	608
-583.958	36	131	129	29	75	-20	-33	60	-139	-20	37	3	165	123	306	627	510
-582.853	62	195	117	32	-1	133	-112	18	-30	-2	-82	7	20	129	466	541	514
-581.748	99	98	82	37	-109	-55	-14	159	-30	57	-16	54	-86	293	360	529	565
-580.643	132	278	218	220	272	205	218	93	71	189	170	93	247	253	460	513	635
-579.539	235	202	162	97	93	85	83	7	-58	89	54	-13	120	227	426	475	484
-578.434	52	91	53	15	-52	61	-21	-73	-51	-24	-54	3	-10	102	439	539	587
-577.33	73	134	112	107	103	50	-4	148	97	161	28	18	110	157	360	506	539
-576.226	183	109	92	57	-26	-58	-32	-92	-25	-4	20	-3	49	38	345	456	638
-575.123	110	52	108	195	182	-9	30	74	1	-8	42	-111	45	216	453	417	529
-574.019	130	152	57	-14	19	-32	53	-30	18	55	-65	-22	18	113	365	508	630
-572.916	92	58	78	-51	60	-115	20	-111	-121	-131	-7	-61	-28	123	303	666	639
-571.813	93	170	192	79	167	69	66	58	44	55	-5	-57	-20	194	282	607	657
-570.71	64	83	88	68	-90	-15	-28	-17	-35	-10	-6	-99	-5	132	316	528	653
-569.607	260	238	157	134	135	74	199	-28	83	91	97	84	202	261	389	631	633
-568.505	203	165	176	129	145	157	112	83	79	156	100	-4	104	242	534	521	589
-567.402	83	51	115	48	-87	49	-18	-10	-68	-48	-12	-158	-94	99	321	648	547
-566.3	98	88	157	12	-29	-83	102	6	-35	-90	114	30	46	141	437	489	632
-565.198	149	238	103	163	99	19	-124	-77	19	160	67	-25	27	209	282	577	681
-564.096	140	155	148	149	68	12	4	9	16	37	48	73	19	104	316	730	660
-562.994	176	116	64	137	47	1	-38	-44	-20	-100	13	-46	14	111	404	525	772
-561.893	111	124	-44	102	32	-31	57	22	-90	-128	44	-39	11	71	419	598	508
-560.792	185	260	197	156	247	168	106	136	105	260	-25	227	239	280	523	658	696
-559.691	154	202	215	161	175	106	113	39	166	153	184	166	102	295	499	667	703
-558.59	87	258	160	131	126	96	-2	104	41	201	87	29	126	220	496	574	634
-557.489	112	260	158	85	160	18	87	53	104	42	64	-55	53	192	399	580	649
-556.389	87	202	84	57	149	-27	54	9	30	31	-41	19	-41	144	347	637	591
-555.289	152	246	87	186	154	138	102	-19	35	184	116	79	107	88	476	510	576
-554.189	90	254	99	192	104	39	43	111	70	16	-9	81	133	171	424	501	596
-553.089	197	242	119	109	82	46	115	8	84	91	119	41	119	152	472	664	593
-551.989	136	72	47	-34	58	75	-73	88	-41	-76	-11	47	144	91	442	600	625
-550.89	73	216	244	139	213	59	97	107	125	181	176	64	156	290	452	728	635
-549.79	145	185	171	-13	95	106	128	32	-44	179	33	5	-5	201	337	581	630
-548.691	266	235	145	69	158	162	136	32	36	185	25	224	81	208	504	682	628
-547.593	104	220	112	48	71	46	-42	21	-107	2	65	-13	2	157	359	642	671
-546.494	208	149	-5	202	173	-1	86	66	46	43	51	21	77	170	417	693	598
-545.395	152	196	209	146	109	61	69	36	99	93	134	-8	63	300	535	626	741
-544.297	254	381	360	238	169	245	244	184	238	140	171	77	225	312	567	676	505
-543.199	143	106	92	23	75	17	-47	-48	22	-29	110	-113	32	159	283	759	746
-542.101	70	163	150	162	196	11	119	107	83	43	96	144	115	163	472	749	641
-541.003	70	179	151	40	101	23	108	-8	-6	93	91	-24	3	142	347	666	660
-539.905	192	255	68	179	110	174	160	135	101	176	73	20	182	217	482	704	800
-538.808	92	162	110	28	45	126	31	-83	-104	520	-18	1	161	155	378	790	701
-537.711	204	159	146	152	215	33	42	53	77	132	107	114	189	223	505	580	519
-536.614	119	186	200	187	59	112	47	74	-42	67	120	39	156	352	426	744	618
-535.517	177	127	228	76	56	53	71	82	59	72	-6	111	9	75	497	680	708
-534.421	86	167	153	138	167	63	76	87	112	-24	118	45	80	255	427	623	780
-533.324	151	185	178	172	146	100	99	-11	120	235	30	191	199	71	526	695	666
-532.228	119	157	130	96	125	127	18	58	8	70	103	80	95	204	408	766	630
-531.132	177	294	177	287	131	79	117	119	161	103	201	134	192	223	493	620	694
-530.036	100	251	145	154	206	118	23	14	142	189	132	86	105	308	474	676	823
-528.941	87	229	174	85	63	165	10	273	-17	-35	87	129	73	172	450	773	680
-527.845	84	110	56	1	25	48	-102	-15	-30	-50	-100	33	113	124	391	683	622
-526.75	94	137	-18	116	56	102	44	33	-33	89	107	-6	11	108	479	667	749
-525.655	41	124	-6	-3	23	-93	-89	59	-117	-28	-142	-6	35	174	357	602	627
-524.56	283	235	204	244	172	210	85	11	7	161	-71	15	70	290	482	709	699
-523.466	154	178	136	138	121	-7	-20	45	3	97	155	71	220	108	506	704	728
-522.371	110	285	147	180	110	222	150	174	52	171	157	71	52	167	395	594	616
-521.277	265	285	201	220	144	158	102	62	56	90	107	33	131	227	518	798	781
-520.183	101	121	158	9	-59	-26	-7	4	-21	1	-63	-10	18	176	393	730	616
-519.089	132	234	166	126	122	209	44	-23	50	58	96	-45	69	265	407	788	782
-517.995	198	280	179	96	151	228	161	58	168	114	142	153	111	285	548	658	860
-516.902	36	133	216	160	68	-43	54	-17	18	42	17	-15	95	196	388	723	600
-515.808	203	167	237	181	129	218	75	85	60	84	108	69	155	326	658	770	742
-514.715	127	106	52	72	72	-60	-86	-26	-83	-46	-35	-70	-68	72	375	753	724
-513.622	202	168	132	34	74	22	10	128	23	5	72	63	98	227	474	822	747
-512.53	151	171	148	222	123	145	121	107	43	157	125	41	144	372	454	675	641
-511.437	189	240	168	93	27	147	7	118	76	116	188	194	19	221	559	687	708
-510.345	196	290	200	133	89	189	174	141	174	180	145	136	-24	251	502	833	838
-509.252	148	152	245	228	161	83	123	168	75	90	75	129	175	248	533	831	778
-508.161	189	214	137	91	73	105	-27	148	48	75	-64	5	32	199	440	734	631
-507.069	31	101	149	134	62	101	116	-52	21	122	-27	95	92	47	395	873	728
-505.977	203	285	228	181	36	102	124	193	-23	77	170	76	52	208	500	753	628
-504.886	188	306	62	-14	51	-96	9	29	118	15	-27	-53	-5	200	405	812	798
-503.795	77	83	11	42	74	6	43	-125	-30	-101	-14	-3	73	129	460	590	629
-502.704	241	297	137	167	124	152	145	51	104	164	91	6	175	210	556	784	877
-501.613	110	195	75	217	39	87	107	58	24	51	80	108	25	242	455	779	697
-500.522	117	177	218	103	199	116	167	129	16	56	160	59	137	225	522	591	592
-499.432	230	207	160	181	146	48	178	110	-12	70	54	134	202	165	638	806	809
-498.342	194	170	163	73	57	78	126	32	17	35	75	33	50	277	494	746	761
-497.252	29	117	32	10	113	-39	92	-44	19	-15	-63	-25	-2	103	388	601	875
-496.162	159	200	23	40	120	54	28	34	60	41	138	-74	30	215	429	750	771
-495.072	85	130	160	156	64	40	-73	9	-105	47	37	-9	123	136	313	720	637
-493.982	121	75	38	13	53	-58	-120	-95	-107	-88	-51	-55	-89	42	372	647	697
-492.893	208	95	106	100	136	124	86	62	92	149	16	44	81	207	389	641	630
-491.804	189	186	136	61	72	156	157	64	214	132	192	213	57	187	550	678	720
-490.716	151	199	136	169	108	98	-20	120	39	23	129	90	132	144	449	665	652
-489.627	115	187	105	156	138	88	12	-41	76	125	32	-95	91	107	440	762	685
-488.538	315	164	254	141	162	186	38	65	11	121	83	118	43	283	476	746	706
-487.45	143	171	200	111	101	156	156	51	2	68	114	92	90	269	443	568	613
-486.362	283	225	94	145	209	35	172	180	-34	176	20	1	67	311	525	595	677
-485.274	107	206	135	89	91	15	59	5	25	-58	38	32	-24	122	382	714	691
-484.186	256	284	313	214	212	46	184	193	191	125	207	129	222	384	504	788	851
-483.098	122	133	217	133	125	101	71	71	1	73	33	100	37	295	564	730	741
-482.011	163	190	199	141	213	-16	138	22	28	106	28	148	123	133	434	785	862
-480.924	154	158	153	163	168	135	150	94	6	81	91	38	126	174	519	671	710
-479.837	281	302	267	236	242	268	200	179	341	169	229	193	198	378	660	836	742
-478.75	115	217	166	73	128	53	23	47	40	95	5	71	21	135	455	717	679
-477.663	177	145	111	11	71	144	63	15	-41	-28	-68	-5	139	67	473	700	739
-476.577	247	194	189	233	170	59	171	119	179	259	207	38	192	295	529	758	660
-475.491	346	295	242	203	187	157	108	138	56	193	33	138	149	370	644	774	727
-474.405	151	190	203	111	121	126	93	52	93	65	144	74	63	247	539	731	816
-473.319	139	188	195	220	119	-9	119	25	123	71	160	34	32	180	509	864	749
-472.233	143	135	140	88	17	-43	88	-1	48	61	113	80	76	174	379	866	778
-471.148	220	135	206	147	137	126	190	48	5	188	36	72	150	245	480	602	644
-470.062	304	224	258	107	84	177	147	72	70	129	97	110	183	267	544	781	897
-468.977	95	254	224	174	106	99	55	60	43	37	52	61	144	150	529	662	714
-467.893	262	198	164	114	124	81	154	146	64	86	126	70	62	186	451	809	766
-466.808	196	55	-39	13	49	-55	58	-53	-35	-88	52	59	-38	136	491	731	733
-465.723	90	208	171	22	53	61	52	-41	39	51	-16	41	71	183	474	864	715
-464.639	94	173	56	117	42	-25	44	-1	-62	37	51	79	25	239	389	866	732
-463.555	94	205	-10	110	84	87	42	131	-78	-100	94	39	52	154	487	872	735
-462.471	191	151	208	161	255	158	123	109	-8	196	43	113	111	227	550	798	776
-461.387	242	117	178	72	57	115	69	76	152	90	62	43	48	276	471	667	763
-460.304	218	240	136	70	7	54	60	69	80	74	93	70	104	240	499	718	772
-459.22	247	228	289	131	138	132	157	144	82	167	259	138	177	290	529	758	722
-458.137	142	159	86	-1	58	62	-58	9	-37	56	-83	-52	59	176	432	691	620
-457.054	170	164	90	58	73	57	-12	-51	56	36	43	-27	-35	261	524	665	726
-455.971	37	88	74	68	6	0	-78	-62	8	-37	-6	-1	20	159	389	740	777
-454.889	80	130	122	19	127	43	-64	18	-28	49	43	-65	149	180	501	795	831
-453.806	182	195	155	107	88	36	8	5	-2	61	47	41	56	234	392	771	679
-452.724	351	353	224	301	224	74	170	236	80	144	190	44	205	348	601	728	614
-451.642	155	122	84	104	97	101	16	34	-155	23	-39	5	53	96	459	786	727
-450.56	162	177	178	95	124	148	85	152	157	116	2	146	105	177	577	767	803
-449.479	130	128	175	85	166	78	36	57	-66	-75	30	80	33	93	381	765	825
-448.397	128	190	128	96	55	133	52	90	97	93	52	111	79	186	506	665	546
-447.316	127	81	142	-33	6	54	84	1	-10	34	-39	-30	90	182	441	824	787
-446.235	314	268	158	155	214	168	164	234	112	189	122	126	89	328	577	692	707
-445.154	164	178	141	55	243	118	152	-22	-10	96	-14	13	28	120	445	656	752
-444.073	116	124	111	139	-21	25	57	12	-45	74	161	17	137	180	506	659	756
-442.992	237	201	212	107	170	143	94	109	193	169	74	22	97	325	455	571	701
-441.912	114	221	141	126	-10	44	-22	38	-15	60	-48	71	-4	106	319	676	808
-440.832	129	225	47	-15	96	63	127	209	11	66	92	29	123	215	443	610	638
-439.752	187	136	87	107	91	113	121	-26	68	115	52	183	120	238	448	676	849
-438.672	201	204	260	145	208	59	100	161	108	29	156	125	82	289	425	732	791
-437.593	269	372	202	172	285	140	114	202	141	157	206	32	251	261	616	871	851
-436.513	203	191	13	-17	66	24	65	20	30	194	-25	-79	47	189	445	738	752
-435.434	314	345	241	246	265	301	213	212	131	221	209	163	109	399	666	666	643
-434.355	97	13	35	-51	-5	-52	-73	-99	-150	-45	-28	-28	-118	8	430	683	779
-433.276	260	242	297	182	128	142	175	95	85	194	69	178	244	298	555	515	678
-432.197	218	168	220	231	148	175	134	204	120	118	39	101	159	202	538	602	697
-431.119	104	175	144	97	97	-23	-13	-76	98	6	28	58	-82	57	441	765	675
-430.041	119	284	247	122	113	85	55	82	-12	-9	-52	29	13	266	452	704	743
-428.963	188	185	129	104	54	109	-22	2	26	65	26	3	89	175	617	717	724
-427.885	113	222	71	-37	48	14	78	-49	-19	30	73	-9	26	147	423	736	770
-426.807	257	291	126	224	172	156	143	168	112	54	141	97	102	328	543	749	811
-425.73	165	288	114	108	153	-34	135	0	52	63	81	32	67	220	586	834	605
-424.653	152	202	120	121	83	69	81	57	85	40	75	-3	221	142	576	1019	901
-423.575	259	307	344	231	167	216	205	153	119	251	293	126	114	439	703	728	748
-422.498	279	345	289	279	235	144	242	155	201	91	105	76	111	231	711	918	826
-421.422	168	189	63	163	63	130	132	81	38	-47	-47	-22	48	189	608	996	793
-420.345	69	201	144	110	90	78	2	-39	9	41	90	19	125	157	593	993	965
-419.269	170	270	137	34	56	131	-17	20	-11	103	-2	-2	143	351	677	1002	944
-418.192	183	124	151	78	160	50	148	-19	-22	31	93	-63	29	213	673	880	825
-417.117	266	182	175	169	43	165	86	161	141	109	127	125	131	320	798	1063	894
-416.041	274	273	226	158	245	208	165	151	189	178	117	36	117	325	880	1063	932
-414.965	121	134	96	155	188	100	130	61	117	103	79	144	100	301	764	1143	1104
-413.89	222	175	70	60	21	42	-20	12	43	110	62	26	112	287	856	1290	1156
-412.814	191	144	233	92	-5	122	-3	12	138	57	71	19	126	275	924	1173	1105
-411.74	84	234	57	112	-3	0	0	50	-26	-19	-83	-7	82	264	897	1512	1213
-410.664	119	119	141	89	99	61	89	115	58	174	105	92	203	340	1076	1451	1345
-409.59	272	318	264	255	163	188	218	190	152	192	200	205	233	461	1177	1618	1408
-408.515	173	109	121	145	57	66	70	42	63	19	53	142	118	414	1068	1599	1443
-407.441	150	195	49	9	59	-43	51	-60	-72	90	-11	-8	65	289	918	1397	1237
-406.367	145	115	101	82	145	54	48	33	13	11	44	75	106	324	876	1342	1213
-405.293	161	126	63	-5	22	45	99	-60	85	-47	22	-41	11	363	787	1137	1154
-404.219	83	213	45	131	157	18	52	-3	-11	104	103	-8	-29	168	706	1200	1017
-403.146	33	217	113	115	72	27	-2	-54	91	41	112	-13	71	132	522	872	782
-402.072	180	174	220	168	79	162	89	99	67	115	-39	18	49	280	557	861	753
-400.999	132	103	219	128	85	72	109	78	58	39	0	8	73	169	565	831	810
-399.926	225	229	269	279	93	224	124	210	120	205	179	179	61	294	522	712	711
-398.853	25	192	121	56	125	-7	65	-54	16	11	-53	72	-22	147	334	670	704
-397.781	68	95	50	15	95	59	61	-9	-101	16	-32	8	85	187	337	722	749
-396.708	135	190	115	117	180	185	117	139	113	103	8	82	127	157	469	680	540
-395.636	208	202	154	121	77	105	162	69	79	125	35	57	176	252	389	522	603
-394.564	177	181	151	98	110	-1	109	59	-4	50	67	-87	53	186	403	664	583
-393.492	126	111	116	41	51	-73	-100	-4	-73	-34	-82	-90	8	59	307	535	588
-392.42	173	233	92	144	130	22	78	64	50	107	97	101	44	199	400	490	458
-391.349	231	177	160	157	160	85	10	46	46	71	117	-2	152	260	309	452	389
-390.277	129	224	123	34	103	48	1	20	-130	2	26	-23	37	113	243	521	473
-389.207	132	237	101	82	46	76	77	43	40	-7	52	7	35	165	241	501	439
-388.135	208	173	165	114	180	109	152	216	190	135	166	11	174	186	236	568	349
-387.065	49	86	145	68	120	-19	-7	-4	1	-51	33	25	-100	60	302	406	532
-385.994	179	186	235	91	217	168	112	150	12	241	105	57	29	237	351	511	527
-384.924	207	102	79	13	31	85	33	-82	-20	72	-2	10	38	30	238	520	495
-383.854	170	240	123	120	103	37	55	37	29	56	-71	45	-10	62	319	312	489
-382.784	144	137	74	142	158	44	115	-1	66	-81	146	62	64	184	299	624	670
-381.714	125	115	87	71	55	55	52	-29	-38	168	51	-39	27	16	319	531	352
-380.644	123	262	113	52	137	59	128	3	134	88	-47	-29	32	225	403	498	521
-379.575	279	332	272	208	121	130	126	117	198	173	153	69	167	258	376	575	630
-378.506	172	228	74	137	133	29	42	-20	-16	157	13	0	-14	181	463	575	578
-377.437	107	211	197	93	74	73	66	97	41	104	39	63	61	218	313	645	599
-376.367	137	161	55	-7	37	-64	-2	22	-92	-86	-81	-75	-21	166	313	686	639
-375.299	213	155	272	173	241	86	121	47	42	71	134	107	78	213	452	640	670
-374.23	238	205	47	170	99	79	128	51	67	17	80	34	50	146	430	657	737
-373.162	235	234	46	124	55	62	103	101	66	110	44	7	63	185	500	751	705
-372.094	235	282	206	160	82	157	107	44	81	31	100	-24	-50	190	430	743	546
-371.026	171	337	230	87	95	8	132	62	42	49	31	35	119	265	357	774	801
-369.958	149	167	135	190	228	194	161	116	40	143	114	70	232	222	445	606	682
-368.891	179	242	155	110	1	169	-3	53	12	148	52	-43	82	200	376	483	378
-367.823	162	186	134	121	92	-18	-58	26	-30	67	-16	-31	-42	14	203	446	356
-366.756	238	255	193	206	250	149	139	74	32	100	159	0	75	169	404	434	391
-365.689	219	197	92	-21	114	90	104	-6	28	64	9	-84	-30	95	173	424	340
-364.622	90	144	32	-101	39	-57	-88	-48	-41	-15	-159	-5	-130	104	127	308	253
-363.556	108	152	131	21	89	40	77	-89	32	49	-3	-14	-27	5	117	216	198
-362.489	338	344	227	249	135	107	120	148	136	120	93	-29	26	212	175	266	312
-361.423	117	206	181	119	110	41	26	93	51	70	-41	47	-27	104	137	255	134
-360.357	112	166	9	18	84	63	10	-20	44	0	40	-95	-113	129	102	288	292
-359.291	151	178	84	132	40	45	2	38	-25	-4	9	-64	-43	51	0	157	79
-358.225	109	143	174	223	133	163	169	114	161	97	91	10	47	168	144	106	149
-357.16	157	180	118	122	59	20	-58	34	-61	104	-36	-76	-34	30	70	239	238
-356.094	200	149	132	49	10	27	62	-42	-7	67	22	-50	55	106	129	208	177
-355.029	136	148	21	183	49	23	145	-12	72	31	-17	-66	-20	75	107	68	41
-353.964	93	203	22	124	105	131	32	-25	41	24	-89	-44	36	87	54	102	181
-352.9	213	188	155	143	187	23	-17	80	-10	112	99	-3	59	88	18	172	216
-351.835	102	156	99	79	0	58	49	60	-65	-1	13	-73	-74	-26	76	140	86
-350.77	245	184	96	109	102	65	60	41	-2	88	-35	31	41	78	39	202	142
-349.706	96	141	138	49	17	-57	-140	-94	-12	-35	-5	-54	-121	25	31	142	189
-348.642	83	137	172	91	36	22	32	110	-58	-10	-91	-59	-26	23	67	124	79
-347.578	95	151	103	114	84	64	19	10	38	-76	98	-4	24	39	71	231	83
-346.514	29	101	2	39	58	25	-7	-106	-19	23	-22	1	-82	-34	29	93	106
-345.451	71	235	89	106	73	45	-50	121	21	98	13	43	-67	95	40	94	169
-344.388	153	159	90	135	82	126	60	50	-25	45	52	2	49	-3	3	92	152
-343.325	110	159	85	-16	77	108	23	18	-8	5	-13	-96	-54	89	68	196	183
-342.262	111	121	142	204	110	81	12	29	41	88	-32	57	55	99	89	77	112
-341.199	140	224	155	126	6	19	-3	38	44	-11	-61	24	25	74	57	113	97
-340.137	215	294	155	195	196	190	152	151	53	141	189	151	250	142	157	19	25
-339.074	79	143	155	67	8	-49	-39	-16	-81	-51	-72	-86	-34	2	-83	231	35
-338.012	96	83	99	64	83	123	78	-45	-64	79	-105	43	12	57	99	150	149
-336.95	136	174	154	25	56	-7	56	-6	-80	-28	20	-3	-10	62	-42	135	221
-335.888	161	254	224	161	76	172	84	104	60	16	86	3	11	137	19	155	247
-334.827	91	158	208	143	2	2	-26	-19	93	21	-26	21	-8	-41	33	82	134
-333.765	224	242	134	148	132	118	156	3	-7	89	75	-70	-30	142	30	107	64
-332.704	173	25	102	139	56	100	17	50	1	103	25	-18	85	95	93	99	90
-331.643	110	76	190	-58	34	12	0	-10	6	-43	-41	-32	-6	-14	0	146	196
-330.582	160	78	71	65	-41	29	52	-91	1	-8	-64	-158	-81	-77	-35	168	63
-329.521	158	204	187	116	34	139	47	85	-66	-37	28	-2	85	65	76	153	135
-328.461	183	197	148	83	34	62	76	128	-19	-41	-11	-43	-11	132	84	143	63
-327.4	245	196	155	98	40	35	123	-16	-69	31	85	11	56	77	122	255	214
-326.34	135	-17	77	79	15	-99	-78	41	-108	-43	-97	-102	-40	6	11	117	179
-325.28	66	106	119	7	68	-54	-4	9	-86	-84	-54	-88	-64	14	0	90	240
-324.22	183	260	140	49	55	125	15	4	-29	26	79	10	31	106	-2	157	221
-323.161	48	128	15	-69	-27	1	-31	-51	-22	-22	-83	-105	-161	-40	-44	86	47
-322.101	271	214	169	95	140	43	24	86	65	62	-23	-79	38	107	122	259	242
-321.042	202	231	246	252	121	124	125	104	87	165	46	12	18	151	82	30	100
-319.983	108	99	29	75	42	19	27	-33	-26	64	1	-64	-115	157	40	146	180
-318.924	177	115	90	139	137	88	41	108	-37	-6	37	-22	46	27	180	96	190
-317.865	71	201	74	61	114	39	2	-10	-97	56	-38	-44	0	7	72	91	168
-316.807	120	85	67	45	34	2	36	18	-20	12	-79	-45	-7	89	144	62	179
-315.749	144	289	80	108	97	48	74	55	-122	114	29	-63	100	57	68	221	246
-314.691	280	182	158	21	158	83	95	64	72	-23	-26	201	55	136	114	158	85
-313.633	123	161	144	75	115	-33	-11	94	-5	35	40	-172	26	123	25	135	237
-312.575	149	184	148	162	78	117	101	91	114	45	3	-17	65	51	33	339	179
-311.517	73	163	113	171	91	22	40	81	5	90	47	14	-55	49	66	-46	149
-310.46	249	109	-53	-7	93	-23	17	14	12	-35	-34	-150	5	-53	-28	126	262
-309.403	88	186	89	21	19	-71	46	-54	43	26	52	-103	-64	-4	39	233	106
-308.346	220	216	-55	87	64	79	-35	-60	7	-38	-5	56	-119	15	-23	80	133
-307.289	231	228	195	145	253	80	138	133	-19	142	12	19	18	40	114	128	184
-306.232	84	241	77	68	83	-67	6	35	51	-5	97	41	54	40	97	142	102
-305.176	134	89	198	16	15	48	28	-27	26	-56	-6	7	-14	22	14	80	79
-304.12	82	135	54	73	42	20	-38	-48	-44	-32	-46	-4	-156	99	-14	125	165
-303.064	202	235	181	-16	56	74	114	17	-14	33	-81	-34	-1	88	168	220	166
-302.008	117	195	34	127	30	13	11	-48	-15	56	-7	-29	37	3	69	41	194
-300.952	63	116	121	67	39	69	0	-105	-6	7	-28	-99	19	-1	66	169	117
-299.896	174	119	116	79	61	-9	-15	36	-56	72	78	-3	51	-6	-58	165	169
-298.841	100	130	161	139	90	50	39	-31	-77	-10	-28	-11	20	108	145	275	191
-297.786	260	139	200	137	199	74	151	130	14	54	158	89	-53	79	106	184	100
-296.731	184	225	111	98	124	13	77	100	39	49	15	9	95	100	40	102	149
-295.676	151	228	61	108	147	113	118	-10	18	-20	4	11	46	3	114	72	130
-294.621	191	191	42	179	40	135	134	34	-37	79	77	-86	25	84	83	145	292
-293.567	2	234	54	61	112	-30	28	-27	0	4	9	15	19	58	146	313	291
-292.513	160	156	154	69	73	107	118	68	57	37	79	-30	-22	91	102	193	111
-291.459	183	153	97	18	46	-60	26	-69	-111	46	50	-8	1	-45	98	169	256
-290.405	132	278	194	85	141	137	32	45	123	66	102	-7	42	105	87	202	43
-289.351	150	175	80	102	51	47	167	9	-10	10	36	-39	-5	40	79	101	195
-288.297	171	189	145	111	99	88	98	81	95	51	71	1	175	115	96	197	190
-287.244	205	261	128	166	105	47	97	46	14	35	82	34	31	48	103	218	210
-286.191	185	263	204	95	194	210	85	80	29	160	32	-30	148	201	67	129	192
-285.138	160	118	167	66	19	122	21	-62	-28	22	-5	-43	-51	44	135	56	80
-284.085	134	190	92	87	76	49	-22	-30	30	-28	-31	-16	-30	15	79	197	190
-283.032	191	72	-31	25	39	69	-109	36	-85	39	-24	-65	-46	3	120	218	210
-281.98	305	357	193	179	55	143	109	126	138	100	72	3	22	133	-5	44	177
-280.928	218	226	148	159	151	46	63	81	46	-9	56	13	-16	72	106	197	190
-279.876	39	55	-3	-17	27	-24	-102	8	-136	13	-118	-149	-64	-55	-57	218	210
-278.824	145	252	207	45	27	35	33	87	92	35	44	81	-36	105	95	129	192
-277.772	256	280	187	156	150	-5	138	7	111	-34	46	63	-34	45	108	163	165
-276.721	55	134	40	65	15	-10	-27	-59	14	-96	-63	-71	-98	-32	34	120	169
-275.669	185	182	71	76	173	82	65	-44	-18	-36	16	10	-12	-12	43	126	103
-274.618	153	178	98	116	128	70	63	-64	27	23	-41	-20	-87	111	98	108	187
-273.567	206	84	133	2	94	5	26	51	-37	-71	29	-41	-13	16	-16	172	85
-272.516	157	173	107	100	150	19	38	10	55	39	73	42	84	98	38	40	74
-271.466	256	181	164	176	216	137	133	154	71	62	63	112	134	84	253	66	113
-270.415	127	114	1	43	37	-38	-65	-51	-124	-45	10	-66	-56	23	65	179	208
-269.365	118	174	226	166	128	93	18	124	84	57	25	33	100	120	86	200	132
-268.315	123	196	104	40	48	10	-20	-48	-111	24	55	-41	-75	42	84	99	223
-267.265	187	179	178	9	73	21	69	53	-38	26	-15	28	8	117	39	213	143
-266.215	107	109	124	56	50	55	-35	98	-25	-4	62	12	-88	9	45	180	63
-265.166	69	133	179	132	125	28	144	61	11	117	64	17	117	67	114	118	199
-264.117	160	114	76	74	50	10	-93	13	-77	-34	-11	-53	37	51	49	43	85
-263.068	299	246	257	87	214	216	151	44	46	115	65	41	63	111	99	132	179
-262.019	106	102	100	-32	93	-53	41	-57	-44	21	81	-49	-72	-38	174	251	265
-260.97	57	130	96	107	21	25	-18	128	46	57	-79	-30	-2	122	-22	190	164
-259.921	158	91	60	48	100	133	27	29	-38	-4	-86	-30	14	94	85	120	118
-258.873	241	170	69	98	71	11	79	-31	-44	-57	10	52	-97	12	77	94	111
-257.825	183	92	99	120	83	98	63	64	88	67	-34	37	50	139	103	168	207
-256.776	73	144	89	2	-2	-39	-135	-32	-42	-9	-12	-148	-28	-2	29	185	158
-255.729	141	225	157	193	121	-8	85	77	-7	28	3	43	-4	50	101	259	214
-254.681	133	104	174	59	36	68	35	98	2	49	10	-18	44	98	-26	188	148
-253.633	129	198	79	62	130	36	16	-35	10	44	-14	-69	-19	74	44	150	208
-252.586	83	127	156	85	-11	23	109	55	-60	-45	-25	-106	-82	-10	-57	175	109
-251.539	82	121	18	54	1	-32	-21	-40	-152	-46	-10	-118	32	5	88	234	196
-250.492	192	182	147	40	124	61	36	27	24	17	25	50	41	73	58	37	154
-249.445	227	70	62	75	59	-9	17	-20	25	165	11	36	25	127	110	126	183
-248.398	86	188	19	130	33	-36	15	-41	-38	20	-4	-48	-4	44	25	93	187
-247.352	47	134	44	3	55	-27	-6	-44	-33	-4	-70	-37	-29	-18	-50	12	62
-246.306	141	258	157	139	130	117	34	91	59	78	97	-51	115	63	186	224	292
-245.26	176	192	97	193	125	113	129	39	61	72	-13	80	89	91	144	151	143
-244.214	196	241	187	152	166	53	128	100	48	37	10	64	-22	55	130	277	157
-243.168	101	98	114	38	25	12	-91	-43	-50	35	-154	-86	30	-115	27	184	200
-242.123	143	185	100	161	85	42	30	154	28	7	44	-34	-3	111	124	286	216
-241.078	52	150	148	-6	-6	-23	1	-27	-88	-20	-74	-46	-19	101	-19	64	161
-240.032	106	88	46	59	-93	-40	29	-104	-71	-14	0	0	-41	-88	99	167	214
-238.987	120	49	-26	-29	-92	-67	-114	-154	-144	-154	-70	-195	-189	-64	-73	189	74
-237.943	242	234	139	88	110	30	180	93	80	43	74	78	81	70	78	189	270
-236.898	225	118	208	156	54	7	23	33	26	45	22	-25	-37	113	169	90	155
-235.854	104	79	58	12	96	-21	-111	24	23	-43	-48	-139	-91	-61	-48	285	273
-234.809	121	183	114	61	118	34	11	-32	-22	52	-12	-39	10	14	28	311	229
-233.765	206	168	72	46	27	87	-23	24	131	53	-18	-88	28	59	81	204	151
-232.721	105	106	98	101	77	38	-30	34	-111	-5	33	-85	15	25	32	186	215
-231.678	110	201	49	89	-24	-42	-7	-71	-12	1	-55	-17	-103	7	-15	209	224
-230.634	199	197	116	19	70	48	111	53	29	56	81	-33	114	26	114	77	77
-229.591	163	157	81	-7	77	-33	-70	-49	-113	7	-94	-56	-32	56	-28	183	141
-228.547	72	83	55	88	-14	0	-79	-101	-78	-101	-72	-109	-15	59	-33	161	204
-227.504	169	223	116	219	36	41	90	137	-13	141	-38	19	-11	70	46	155	106
-226.462	153	81	160	95	130	-50	66	-95	7	40	-32	-33	8	129	95	161	209
-225.419	203	210	99	90	123	29	-7	33	84	63	-12	-70	24	22	72	127	187
-224.377	-4	115	113	-27	28	-71	-22	-77	-116	-72	-113	-135	-66	-57	-36	101	280
-223.335	205	113	248	159	139	40	130	128	47	39	44	-8	54	131	90	133	201
-222.293	212	255	176	169	183	189	139	55	58	212	130	108	85	41	41	84	72
-221.251	43	77	6	-34	-67	-79	-138	-51	-249	-85	-44	-195	-154	16	-84	219	167
-220.209	123	199	141	71	109	104	94	78	87	60	96	104	-121	132	128	184	189
-219.168	136	123	-3	51	-42	24	39	5	-44	-32	0	-59	-79	2	92	125	261
-218.126	115	181	-19	86	82	-32	-7	-11	-5	43	-107	4	-56	-21	-65	184	174
-217.085	250	268	118	151	162	115	149	104	14	118	105	-2	95	167	141	107	190
-216.044	70	187	171	123	62	53	140	-59	-25	57	97	55	-41	-94	65	135	259
-215.003	119	193	59	156	156	71	50	47	46	-12	83	0	114	55	58	50	132
-213.962	220	124	177	13	111	41	147	-21	42	85	-10	-70	12	165	124	237	145
-212.922	123	241	89	175	116	89	58	58	40	81	0	42	68	62	82	106	109
-211.882	26	133	-41	-62	-9	-43	8	-101	-108	-62	-111	-165	-130	-46	8	156	109
-210.841	199	170	221	214	104	33	115	91	-23	37	45	3	30	108	65	100	173
-209.802	70	101	129	71	-15	64	-48	0	-56	43	60	-117	-82	112	48	47	23
-208.762	222	172	194	174	63	39	139	40	75	65	41	2	96	84	14	96	191
-207.722	174	182	-38	83	67	18	94	47	-40	-36	-22	-42	15	71	116	211	160
-206.683	179	127	89	83	60	-20	-13	40	-39	-5	-54	-54	-115	102	54	102	153
-205.644	161	97	120	27	-6	43	-6	-63	29	45	-22	-48	-45	-15	-5	214	235
-204.605	151	25	31	155	-1	11	33	-32	-106	47	70	-82	91	47	52	107	208
-203.566	270	254	229	208	137	204	142	135	172	155	148	21	93	138	191	102	78
-202.528	65	230	279	115	83	75	69	-48	90	175	114	-59	39	53	163	125	220
-201.489	136	94	83	56	22	38	-6	-56	-63	-55	-66	-59	-75	32	61	175	78
-200.451	172	177	145	122	31	0	42	38	8	39	-26	20	39	56	91	28	115
-199.412	295	366	142	180	137	101	95	104	52	76	176	139	56	157	183	175	184
-198.375	196	129	211	66	133	-12	37	11	-61	29	16	-91	-88	-3	83	208	296
-197.337	152	109	56	119	-35	-48	20	-86	-64	-61	-111	-92	-145	-6	-33	195	130
-196.299	142	40	45	30	39	42	-66	-66	-27	-29	1	-48	-1	-4	91	180	226
-195.262	168	221	193	151	69	3	113	123	54	124	108	75	47	1	85	157	157
-194.225	249	135	113	234	72	75	108	36	56	84	87	6	-39	127	131	232	242
-193.188	0	87	43	43	74	84	-17	-23	47	-25	45	-40	65	105	112	42	42
-192.151	134	266	96	36	0	122	-18	-49	16	-31	20	-49	-51	9	36	147	135
-191.114	230	136	116	9	146	-41	27	83	10	31	-57	-58	-47	42	60	156	75
-190.078	192	100	50	137	128	-47	49	71	-8	75	-38	12	-4	35	68	111	143
-189.041	183	104	49	70	56	15	22	-37	-38	-41	141	-62	59	-3	135	165	162
-188.005	157	261	148	110	187	144	51	120	59	118	68	52	87	75	199	83	154
-186.969	275	230	227	183	202	116	116	103	39	118	57	-3	93	87	50	250	260
-185.934	191	228	232	119	158	58	120	156	-20	77	-25	-3	8	104	101	153	81
-184.898	176	165	66	40	90	-5	-16	2	5	6	28	-36	67	63	111	78	98
-183.863	73	74	74	123	35	17	74	-76	-155	-36	-107	-70	-155	-97	-44	95	161
-182.827	160	160	141	111	63	61	-3	87	-17	97	79	85	101	89	133	211	233
-181.792	190	245	173	203	159	182	96	171	86	217	38	11	100	299	225	286	252
-180.757	119	188	-9	46	55	-92	-46	-60	-58	-20	0	-125	-170	21	-45	110	174
-179.723	175	177	156	162	107	132	89	74	65	-71	9	-22	-3	95	17	118	180
-178.688	174	257	116	131	109	6	36	34	89	-48	88	-40	-6	39	68	108	66
-177.654	156	210	89	86	-49	128	28	-25	37	51	23	43	-83	-83	70	210	185
-176.62	120	228	18	55	37	30	98	99	14	8	-2	-48	-26	63	31	113	242
-175.586	266	199	221	70	224	44	98	127	-49	61	2	51	52	106	169	173	95
-174.552	222	305	230	134	80	133	124	-1	55	107	107	112	148	205	167	150	117
-173.518	171	247	187	105	87	110	87	99	52	80	50	-6	85	29	108	83	82
-172.485	104	46	141	5	38	-24	76	-18	28	-16	-62	-202	-99	-24	-90	75	134
-171.451	224	235	118	140	103	115	66	132	48	113	33	-18	58	87	98	160	210
-170.419	169	155	234	83	57	103	-71	-7	69	-111	26	-151	-75	50	72	202	184
-169.386	301	221	123	175	119	178	92	98	-44	90	64	-35	83	83	79	160	154
-168.353	195	91	96	62	45	18	80	71	-3	132	-109	-35	-36	76	91	112	282
-167.32	177	179	78	106	77	105	34	-35	-17	-41	-10	-112	-65	41	62	39	9
-166.288	114	130	124	83	38	31	38	-120	-32	-14	-10	-49	-25	55	-4	59	103
-165.256	127	175	69	-52	155	110	91	42	28	-5	-13	16	-41	31	80	179	139
-164.224	163	100	185	130	120	47	46	127	15	8	41	2	38	-12	152	208	172
-163.192	98	151	12	65	-24	-58	-70	-42	-108	-88	-21	-151	-35	10	-24	226	111
-162.16	193	242	133	167	70	25	67	21	-8	69	-21	-23	2	31	106	94	106
-161.129	269	280	69	132	201	-69	85	59	121	88	43	11	1	75	127	169	244
-160.097	196	153	185	119	30	15	19	19	26	102	-46	-37	39	14	113	276	246
-159.066	90	135	33	-24	-10	-43	-54	0	17	-73	-45	-106	-90	19	36	220	164
-158.036	27	88	36	122	-46	29	-103	-39	-41	-68	-88	-62	-121	-116	20	-7	69
-157.005	-31	124	-31	-106	-4	-138	-74	55	-108	-168	-39	-164	-113	-88	-41	131	235
-155.974	152	285	161	128	137	101	84	20	29	96	54	-25	-10	136	54	246	40
-154.944	219	201	33	173	74	97	68	56	34	11	15	-5	-70	35	42	200	123
-153.913	185	202	101	110	40	85	101	49	-9	50	27	50	50	-4	119	95	102
-152.883	234	271	163	89	166	158	69	142	-31	80	41	-27	146	-11	207	95	134
-151.854	204	143	149	73	42	34	-16	-17	37	58	-74	-46	-7	67	24	138	149
-150.824	251	211	169	123	139	32	93	13	-38	88	71	6	170	153	64	132	199
-149.794	42	218	123	55	-64	-102	-21	39	-41	-59	53	-88	-89	-38	69	106	185
-148.765	161	132	106	133	68	27	-37	26	-23	49	-79	-100	-34	-8	80	124	211
-147.736	142	254	79	108	196	79	82	94	-24	59	-32	-78	-10	125	63	126	91
-146.707	147	131	148	128	162	113	151	43	63	82	-3	28	-2	127	125	198	118
-145.678	88	82	110	38	80	22	49	-171	-123	-49	-10	-58	-60	2	149	136	124
-144.649	156	247	110	155	77	34	52	1	125	86	72	-66	-63	31	58	228	115
-143.621	285	189	147	71	83	69	80	45	82	90	-39	71	67	-16	213	255	172
-142.593	223	232	254	239	141	150	37	25	-31	7	114	95	59	132	145	157	183
-141.564	123	132	93	71	48	-50	-11	9	-75	-57	97	-82	-112	68	39	294	234
-140.537	134	237	145	132	162	44	203	-5	37	35	-40	72	-49	71	37	120	182
-139.509	83	202	209	141	37	43	32	133	-21	-4	89	-13	-40	113	54	75	26
-138.481	185	235	103	176	99	85	69	-13	90	95	-26	-56	54	94	41	293	296
-137.454	89	122	148	89	42	-76	14	59	-66	4	52	-39	-68	-11	66	170	98
-136.427	120	250	100	169	50	-5	-15	-27	-6	9	-13	-31	-6	3	50	13	81
-135.4	-36	18	34	29	-24	9	-42	-96	-67	-5	-241	-77	-125	-118	-20	115	73
-134.373	178	178	70	209	185	-4	58	97	82	-28	47	-2	104	111	118	85	187
-133.346	227	307	176	95	127	80	70	121	13	36	121	37	-14	57	140	73	195
-132.32	155	179	113	61	124	65	37	-38	67	24	-1	-7	122	83	48	156	76
-131.293	252	273	228	253	245	172	112	181	131	80	191	28	-30	135	156	139	167
-130.267	92	192	96	66	106	60	123	-6	11	9	-73	15	54	34	119	127	305
-129.241	194	217	109	57	103	73	99	101	-7	-96	7	38	9	87	84	210	209
-128.215	110	160	116	120	93	70	-12	38	-2	186	40	33	-7	1	107	264	119
-127.19	46	124	30	19	17	-55	-30	-48	-68	-47	-28	-70	-162	-13	60	188	170
-126.164	172	190	160	144	119	119	30	34	-64	94	64	-43	6	-76	123	199	196
-125.139	119	137	167	-49	9	-64	-66	-13	10	87	-46	-28	20	68	41	131	213
-124.114	145	267	101	129	51	60	70	-18	60	-1	8	13	132	15	70	145	163
-123.089	82	169	162	40	31	41	80	67	-49	-43	12	-48	64	-68	25	103	199
-122.064	151	96	33	48	28	40	-19	-5	-64	27	-8	-145	-45	-18	20	89	94
-121.04	215	265	184	202	134	89	87	109	46	71	76	55	67	125	152	159	198
-120.015	104	160	55	197	171	160	42	53	-12	10	43	-25	-49	120	35	62	154
-118.991	137	230	150	104	135	89	64	-58	40	51	-2	101	88	116	120	200	184
-117.967	246	245	193	221	105	64	120	143	56	48	117	52	4	85	126	168	90
-116.943	76	217	125	31	81	-62	-10	-1	-128	-56	-3	-84	-86	-71	0	172	37
-115.92	38	122	99	-81	39	61	17	-25	-92	-26	-108	55	-103	1	51	95	74
-114.896	234	240	107	112	73	88	81	90	45	61	74	-25	81	135	131	18	144
-113.873	237	227	268	72	157	107	80	56	20	127	48	101	57	195	140	-87	58
-112.85	89	191	152	48	20	78	-16	38	50	119	79	-24	1	46	22	221	205
-111.827	101	106	63	56	11	-45	-31	36	-54	-99	-46	-139	-32	-57	38	159	258
-110.804	197	164	212	120	44	13	22	87	35	148	77	87	-32	102	39	78	180
-109.781	202	251	193	100	96	76	106	74	85	89	60	21	84	86	90	250	330
-108.759	102	130	73	111	-4	-42	5	16	-80	31	-9	-112	25	-37	4	265	129
-107.737	256	51	83	166	67	108	2	-34	-24	39	70	21	11	66	-13	15	139
-106.715	192	194	96	145	105	48	113	0	-71	3	-16	47	39	82	100	120	131
-105.693	28	119	73	47	44	93	63	-50	18	9	26	-57	-73	21	78	173	116
-104.671	178	145	69	144	218	20	84	76	-37	16	2	-13	90	51	65	311	233
-103.65	105	195	144	184	144	81	94	82	16	3	49	22	1	7	-4	115	188
-102.628	55	88	9	-10	-12	-28	-156	-133	-190	16	-25	-108	-86	-35	28	75	207
-101.607	233	236	157	100	93	85	114	178	87	140	44	126	62	143	126	173	36
-100.586	224	304	209	209	144	82	125	44	59	185	114	57	61	94	197	217	228
-99.565	208	249	179	219	274	268	154	94	116	152	35	122	116	129	99	174	144
-98.5444	221	198	95	162	128	82	78	69	-66	29	10	10	3	72	156	178	118
-97.5239	130	146	103	-5	48	42	30	-48	-11	-46	-20	9	31	-22	49	106	149
-96.5035	182	196	145	94	78	118	5	-39	6	22	46	-2	-24	63	56	229	195
-95.4832	189	201	125	60	111	-23	51	35	-21	45	28	6	-4	3	13	169	199
-94.4635	97	193	11	18	71	-1	-51	-45	-12	-65	-67	-91	84	-9	49	92	213
-93.4434	135	297	195	184	137	95	74	67	70	21	34	-3	-20	49	99	200	130
-92.4238	213	258	106	102	165	123	134	69	61	96	-33	16	41	54	116	65	21
-91.4044	170	194	88	101	152	37	48	29	50	50	133	4	-13	208	114	317	188
-90.385	115	149	109	104	117	71	62	26	-44	84	1	-43	49	58	155	85	277
-89.3662	78	144	96	74	43	122	56	-42	41	-19	-61	10	76	9	2	204	166
-88.347	193	127	154	166	55	-3	7	71	20	-15	40	30	41	80	117	231	216
-87.3284	130	121	138	177	120	39	97	73	-27	-16	45	-129	18	-38	20	-60	-30
-86.3098	241	238	105	81	143	112	111	22	64	90	66	-7	58	117	84	112	197
-85.2914	45	162	78	22	28	-16	-14	43	-31	-15	-97	-91	-61	41	8	248	223
-84.2734	299	264	201	271	224	121	103	124	106	107	114	169	182	172	174	220	152
-83.2552	121	146	165	92	52	67	97	-38	-13	96	-76	33	0	21	32	159	124
-82.2374	101	115	31	-34	41	-34	56	-100	28	-70	-58	-147	-14	14	-6	178	179
-81.2198	137	165	90	68	138	-33	-19	-10	-43	26	-36	-37	-123	79	133	67	50
-80.2023	175	219	157	136	79	9	122	48	-22	14	14	-48	-56	74	114	135	218
-79.1848	111	80	151	-6	69	41	48	129	26	50	62	18	-22	64	-38	139	191
-78.1675	43	204	91	91	20	-3	52	-58	11	-48	10	-37	-5	19	47	139	102
-77.1507	152	178	128	34	84	-10	-51	68	-23	-11	-2	-98	17	89	70	143	191
-76.1339	139	190	72	100	4	-72	61	12	-35	-10	-105	-96	-48	50	60	199	115
-75.1173	-9	204	53	131	127	125	1	106	10	-39	-18	-58	13	-6	59	49	80
-74.1008	113	131	119	105	93	69	66	56	3	-36	40	-92	1	-8	66	164	208
-73.0844	229	173	16	147	78	19	-2	-18	-61	-20	-10	-1	57	63	95	46	114
-72.0685	143	149	116	67	178	-32	111	-92	93	63	33	-44	23	82	98	125	209
-71.0523	165	213	104	130	167	146	84	39	32	1	23	37	19	27	93	123	122
-70.0366	75	172	174	101	43	117	88	92	105	62	60	-5	17	52	112	136	142
-69.021	181	129	172	48	60	97	115	40	71	-14	77	79	86	73	67	256	223
-68.0058	100	238	197	69	81	26	8	-31	-52	-1	79	28	61	14	54	274	314
-66.9905	211	297	174	275	106	108	99	51	8	118	55	-4	-1	128	142	56	254
-65.9755	102	206	78	147	56	10	20	87	23	30	-44	2	-75	72	65	144	329
-64.9604	182	195	82	86	20	59	21	60	38	26	23	-80	-10	58	132	123	219
-63.9457	149	120	204	100	69	10	32	-9	99	23	93	14	-48	124	116	36	86
-62.9311	159	280	29	66	83	60	75	34	-24	19	-77	-58	14	109	130	123	95
-61.917	170	149	57	-17	83	88	70	1	3	25	-38	-40	5	9	117	119	202
-60.9026	272	217	153	86	72	56	116	48	43	-3	40	-4	-4	43	79	152	157
-59.8887	151	289	149	161	113	53	27	-44	19	57	-14	58	66	119	164	314	300
-58.8749	273	242	154	100	199	35	92	112	72	37	15	-59	23	76	64	149	162
-57.8612	57	57	104	74	19	-112	-84	-103	-46	-6	-28	-84	-75	-57	93	227	93
-56.8477	189	167	177	34	128	-36	4	43	-41	9	25	11	-13	74	-6	212	266
-55.8342	149	150	187	103	128	73	-23	62	74	58	19	65	1	79	113	229	270
-54.8212	162	156	88	-41	63	56	109	-33	-47	-36	58	3	19	35	39	148	143
-53.8083	210	259	116	204	164	44	144	37	-30	77	71	-12	27	45	110	142	228
-52.7955	146	241	22	33	65	76	-58	-21	53	-69	-6	5	-77	-83	110	147	203
-51.7829	230	133	186	211	152	96	50	3	-5	55	-3	-159	27	52	49	105	161
-50.7703	14	260	-21	59	113	-3	-29	-80	-90	10	-3	-40	-80	97	31	258	179
-49.7582	168	105	72	113	106	72	-20	-18	21	15	118	-12	71	-9	101	224	176
-48.7459	131	220	51	44	49	-42	27	-7	1	49	-3	-10	18	165	69	153	187
-47.734	238	264	299	115	251	177	171	63	164	74	95	70	14	128	219	53	97
-46.7222	125	229	171	124	71	39	33	105	79	141	92	-32	28	135	173	119	203
-45.7109	183	193	235	53	143	63	49	106	88	-72	9	75	-9	113	92	246	282
-44.6994	194	262	176	110	42	124	43	-33	-25	119	44	33	122	48	60	98	53
-43.6883	192	152	92	124	-2	-30	87	58	11	-9	27	-4	-11	-25	119	153	88
-42.677	150	137	106	101	88	63	96	60	24	139	-16	-42	-24	8	5	129	177
-41.6661	71	184	117	181	131	-26	63	-58	31	45	-12	-26	-4	27	118	157	179
-40.6554	338	200	253	150	170	77	147	56	33	89	168	78	100	185	96	138	137
-39.6451	119	111	142	133	90	-4	8	54	7	28	16	16	35	63	163	168	216
-38.6345	189	121	59	28	130	33	-50	-45	-68	-5	-43	6	-39	104	33	274	342
-37.6245	206	248	102	146	150	30	128	39	10	-12	-3	-62	174	116	171	137	97
-36.6145	245	195	170	123	137	25	134	40	77	71	54	50	35	102	147	196	246
-35.6047	86	173	114	27	-37	17	-26	-41	-72	-3	-46	-82	-82	-16	23	214	120
-34.5949	90	148	53	31	41	86	-40	-12	-71	17	13	1	-62	-33	39	140	131
-33.5853	119	178	118	131	150	138	105	58	79	139	10	18	81	189	94	191	120
-32.5761	69	106	170	15	151	119	9	56	58	24	-90	-74	-38	49	34	153	175
-31.5671	151	228	114	22	76	76	18	142	-49	-36	-6	15	-9	39	66	121	173
-30.5581	125	130	144	107	40	-2	-15	6	14	72	-46	-55	14	-47	57	169	254
-29.5493	152	152	51	109	50	2	113	-6	-13	15	-32	-118	22	-11	-12	94	84
-28.5405	113	219	135	155	104	31	-56	5	-25	-10	47	0	-124	21	85	131	184
-27.5323	197	201	124	129	152	87	136	54	51	71	-21	57	77	121	76	149	202
-26.5237	254	254	151	200	170	128	87	-4	132	194	134	77	71	179	130	156	145
-25.5157	79	135	81	86	48	-3	108	-78	-32	24	-54	-95	-119	-2	-18	268	226
-24.5077	189	115	158	-6	132	124	24	104	-53	10	1	-34	49	189	82	213	149
-23.4999	183	155	65	52	-14	-7	85	-26	12	-41	23	-1	40	-18	158	268	364
-22.4925	179	126	235	123	60	51	73	28	34	-86	32	-106	-37	10	152	46	46
-21.4849	82	150	121	54	-13	6	2	-12	-74	-71	-5	-98	-77	61	52	105	162
-20.4778	291	235	203	69	91	145	83	-41	71	53	154	102	80	77	115	248	238
-19.4707	191	252	157	148	150	180	86	174	97	147	94	82	47	129	211	212	138
-18.4638	154	198	129	50	78	82	88	36	79	109	114	66	26	41	160	191	257
-17.4573	201	249	167	259	138	140	-14	-16	59	-23	5	54	74	34	108	144	183
-16.4506	89	222	115	74	96	-38	-20	109	58	39	-9	-68	-21	33	77	127	191
-15.4443	132	204	149	121	148	117	-38	18	-16	-25	57	14	55	119	67	124	149
-14.4382	104	192	137	163	-3	6	194	3	28	68	105	7	14	7	117	171	240
-13.4322	228	181	155	87	87	171	235	132	193	120	48	76	40	64	175	254	218
-12.4262	140	252	318	139	159	217	171	117	89	35	57	-7	3	246	145	147	231
-11.4204	286	357	211	162	108	86	215	133	-7	120	115	-9	18	68	5	189	220
-10.415	173	360	331	163	154	110	182	173	133	-2	80	119	27	103	142	97	272
-9.40979	256	168	153	208	146	170	164	74	115	69	39	-177	-2	-2	45	100	68
-8.40464	256	311	211	242	171	219	67	112	93	207	93	-38	28	229	37	205	299
-7.3996	219	246	193	163	129	176	224	103	85	77	-14	11	-7	-23	101	276	352
-6.39467	158	295	180	131	233	202	237	164	108	168	92	104	92	158	190	239	343
-5.38984	172	223	219	82	188	61	206	-27	-14	19	-86	3	0	-53	-20	284	342
-4.38549	184	301	230	266	273	113	175	20	116	190	24	-74	-53	72	144	170	82
-3.38124	146	82	149	85	152	81	-20	-40	-119	155	-147	-76	-180	31	81	358	285
-2.3771	522	485	344	508	384	94	243	167	220	157	194	219	273	6	196	93	110
-1.37306	484	388	384	429	529	386	317	321	138	369	292	171	174	288	274	192	193
-0.36951	520	594	638	425	543	453	704	427	374	516	353	357	350	343	390	128	217
0.63432	527	404	481	220	491	330	480	334	384	183	406	277	-22	181	-62	326	167
1.63767	367	380	369	-19	133	158	402	254	0	227	108	43	24	122	142	112	193
2.64092	260	415	351	305	76	127	66	45	-95	48	113	10	-54	136	96	227	355
3.64406	195	258	220	115	207	65	116	203	-128	75	94	89	23	-27	227	410	458
4.6471	-46	141	50	-33	-4	-5	-31	45	-180	48	113	43	24	-41	-49	167	168
5.64966	186	218	168	131	220	137	-27	80	18	-38	-12	6	11	83	0	130	159
6.65249	207	207	124	132	38	40	60	4	15	13	50	3	92	67	112	151	167
7.65484	293	228	187	132	160	39	66	7	83	108	40	-46	-42	114	129	57	16
8.65709	174	240	154	105	148	47	76	76	41	17	19	76	125	87	25	149	223
9.65885	244	222	199	112	156	-23	8	59	3	124	-38	48	24	110	121	211	191
10.6609	51	111	-17	14	71	32	87	-64	-65	-13	1	56	-57	50	74	168	249
11.6624	84	210	115	72	162	88	17	25	6	-18	66	-14	-46	-35	39	255	226
12.6643	153	223	142	146	73	25	130	114	15	131	39	90	90	163	166	130	228
13.6656	165	199	143	225	140	58	97	44	9	23	66	23	33	48	35	2	-2
14.6669	236	203	139	170	143	178	92	43	48	137	20	6	-1	83	61	146	106
15.6677	103	205	171	176	168	114	84	116	0	15	23	-2	-43	34	155	69	74
16.6687	178	200	173	178	115	35	7	38	43	43	46	36	99	143	159	239	98
17.6693	207	269	121	166	156	105	117	107	19	123	66	68	35	-40	159	147	272
18.6697	195	234	121	2	143	86	108	-54	6	104	3	33	66	45	33	145	30
19.6701	100	161	36	76	59	48	51	42	2	-2	-63	-58	-152	21	-31	88	141
20.6703	125	155	138	115	128	62	89	4	84	0	95	18	19	42	81	126	184
21.6705	227	204	225	126	90	62	146	37	29	124	133	-34	65	90	135	154	209
22.6702	63	78	58	89	76	-47	-10	-9	-6	10	-32	-129	99	92	76	59	36
23.6697	191	177	104	153	104	122	71	66	10	17	-4	38	35	39	90	204	189
24.6692	157	153	260	114	68	94	-3	41	-22	72	13	-3	8	60	114	193	200
25.6685	233	212	69	203	114	15	50	113	73	117	74	10	113	25	154	247	169
26.6678	120	107	31	-11	75	-70	-46	-7	-38	-75	-9	-46	-119	7	7	180	224
27.667	109	224	31	81	-74	34	24	-47	-26	-4	-35	-61	-40	-58	8	226	188
28.6656	151	214	90	79	154	79	-14	50	4	68	-28	-138	3	126	46	153	168
29.6642	169	149	257	148	27	61	102	59	74	24	-16	16	10	115	112	140	147
30.6627	346	296	259	273	183	161	171	195	163	124	133	172	181	179	264	121	173
31.6611	15	-4	-90	-102	-158	-127	-137	-100	-139	-141	-165	-258	-255	-96	-82	146	188
32.6589	157	134	38	11	86	42	1	3	-114	-10	-58	-52	114	117	139	155	-69
33.6571	104	170	110	-12	20	43	63	28	-77	-30	10	-14	40	4	50	246	250
34.6548	142	241	113	102	40	108	64	-13	-82	45	-26	-15	80	-18	21	204	146
35.6524	126	288	113	192	74	-83	33	6	81	59	94	-25	11	142	113	221	170
36.6499	161	173	115	116	174	32	0	107	-13	28	56	-10	58	43	52	165	113
37.6472	72	107	28	46	24	44	59	-40	-159	15	-68	-104	-33	4	14	18	107
38.6441	234	201	165	131	93	106	135	78	91	6	67	71	-7	43	49	225	171
39.6413	233	208	209	195	123	165	78	50	46	97	-22	1	2	156	125	275	167
40.638	354	265	154	110	159	64	118	66	112	206	74	44	43	159	107	176	80
41.6346	216	196	122	184	113	60	56	35	19	-27	-4	-39	12	88	126	172	171
42.6311	168	124	44	96	33	3	105	14	-86	-27	48	-8	-86	18	58	25	98
43.6271	187	197	60	56	-36	-45	97	-35	-26	-37	-59	57	8	61	43	177	214
44.6234	94	149	157	90	87	106	52	43	-17	62	-3	32	77	126	126	155	237
45.6192	76	83	81	-18	73	-62	-13	-6	-25	-10	-98	-141	-97	4	-83	171	246
46.6149	192	248	271	146	133	135	38	91	106	136	46	49	89	176	120	147	135
47.6105	203	189	153	103	130	20	-30	76	22	0	51	61	-12	22	104	151	126
48.6056	216	167	70	51	-17	30	-43	46	69	19	25	64	11	-34	127	14	115
49.601	187	197	99	52	107	27	109	-19	35	37	65	-191	63	28	104	202	183
50.5959	159	280	87	22	-7	77	88	152	24	55	-28	-27	-19	127	114	150	108
51.5911	146	142	206	84	157	105	153	140	44	26	64	-21	-47	69	95	148	271
52.5854	165	200	154	150	144	61	85	16	4	76	87	-82	55	116	168	130	113
53.58	288	362	236	154	193	208	188	283	35	242	129	54	186	175	208	173	105
54.5746	106	193	96	172	147	-6	110	44	67	99	121	82	32	68	177	67	155
55.5686	96	140	17	-12	99	26	-9	-40	-82	-86	-87	-53	-29	-34	29	250	87
56.5629	226	221	193	110	65	164	107	48	114	58	45	-44	107	116	80	-46	170
57.5567	164	241	209	161	132	152	125	-54	28	179	65	137	81	115	153	130	159
58.5504	131	158	157	2	40	-38	97	-15	45	-20	60	-34	-46	29	141	26	132
59.5437	186	251	145	100	63	95	66	46	24	34	1	-92	17	56	28	91	137
60.5372	279	290	264	177	133	143	56	109	111	70	-11	156	150	175	176	218	238
61.5303	72	98	85	-9	0	10	22	-130	-36	-33	-85	-73	-91	3	24	76	241
62.5232	157	245	193	103	62	18	86	73	102	13	-28	4	44	112	21	117	89
63.516	109	105	129	-6	52	81	-87	-32	-113	46	-16	-45	23	50	61	214	141
64.5088	190	127	93	106	80	44	8	67	62	-9	48	-14	-54	16	106	94	56
65.5014	114	160	102	168	119	33	-11	-31	30	4	-69	-102	-24	69	31	190	140
66.4936	144	193	172	141	175	112	8	90	-37	123	52	9	35	112	145	192	221
67.4856	-9	116	18	1	43	-76	16	-15	-148	-73	-69	-167	-32	-23	-140	147	163
68.4776	25	55	39	-17	2	-43	-47	12	-155	-3	-39	-57	-95	-165	32	218	142
69.4695	148	134	22	94	7	81	51	-23	25	-45	37	-70	-49	97	-17	174	128
70.4612	243	295	220	124	125	36	130	74	107	85	27	-14	-4	83	50	296	267
71.4529	95	85	41	-7	38	14	-77	-117	-45	-28	10	-130	-45	12	52	129	229
72.444	218	195	138	144	84	30	8	33	-41	45	-15	-2	-20	68	76	141	75
73.4351	252	244	8	121	110	97	100	30	72	20	15	86	70	144	176	-6	32
74.4261	81	127	75	6	-3	36	-18	-74	-28	-61	2	-11	-31	-106	4	226	302
75.417	233	167	87	160	-68	95	88	75	86	8	71	-48	-70	36	9	170	144
76.4074	49	76	76	88	51	-37	10	-104	-151	-29	-40	-77	-34	-28	-22	87	161
77.398	244	287	145	157	120	5	90	171	16	45	-8	-20	45	184	87	78	52
78.3882	154	191	112	71	102	64	25	28	16	17	-33	-24	-20	-28	64	149	158
79.3783	83	121	175	146	86	6	24	50	-95	-58	-6	-48	-64	114	31	139	113
80.3683	149	164	67	95	107	23	57	-19	-36	-22	47	3	-42	53	3	135	149
81.3582	142	178	117	43	120	116	131	55	-29	69	16	-8	69	-34	108	109	95
82.3476	160	11	57	79	10	5	-93	-31	-61	-135	-119	-84	-30	-145	35	126	250
83.3373	122	135	9	48	44	12	-2	-41	-56	-61	-56	-103	-8	-57	-26	75	144
84.3265	133	153	48	58	150	116	64	-41	-21	72	63	-52	-35	-49	63	57	80
85.3156	129	161	80	74	39	33	-34	51	32	-28	23	-80	-14	174	89	127	162
86.3046	78	110	43	121	37	21	-20	-119	32	-42	3	-94	-28	35	-10	171	125
87.2931	167	222	202	191	137	107	79	-15	57	13	111	67	59	151	191	170	203
88.282	101	97	134	-61	81	33	-19	37	-29	5	-2	-73	-5	37	62	225	168
89.2703	159	205	157	40	59	76	-26	-8	54	18	-64	-29	-66	74	59	170	222
90.2585	195	241	131	159	83	61	96	55	-58	-6	-11	-31	66	96	53	176	156
91.2467	-13	68	1	-87	-30	-149	-85	-151	-197	-133	-202	-91	-183	2	-89	357	314
92.2347	169	229	181	88	179	139	104	36	47	190	138	-30	122	56	124	129	261
93.2222	281	303	247	205	193	259	152	200	209	71	135	134	46	172	176	-1	182
94.2101	118	258	102	195	123	-4	80	-32	6	74	-24	74	-47	83	77	22	186
95.1974	120	174	177	184	68	43	44	24	73	-1	13	-62	15	73	70	245	132
96.1847	80	203	-20	44	83	57	57	66	26	36	76	19	64	68	166	185	203
97.1718	-28	107	-5	-54	-82	12	-87	-100	-109	-112	-258	-109	-53	-175	-49	141	138
98.1585	44	160	8	-44	-9	-2	-54	-109	-21	-24	-104	-65	-95	-31	-33	294	110
99.1454	63	263	109	4	58	106	99	52	-93	67	80	-69	-70	55	87	176	147
100.132	162	159	148	117	86	126	115	63	83	50	136	76	32	151	129	60	108
101.118	255	288	214	201	224	34	77	151	112	187	134	22	123	183	165	147	157
102.105	180	175	139	117	57	20	22	-25	-18	77	10	-92	-38	54	146	120	74
103.091	145	150	120	53	42	-18	-19	-3	1	-90	33	-90	-61	33	2	212	241
104.076	142	104	120	140	51	130	59	15	18	-61	24	-30	-5	42	32	128	112
105.062	255	217	110	97	119	140	76	15	0	167	25	33	1	87	169	215	142
106.048	273	342	306	240	148	170	161	172	93	188	192	88	136	235	178	49	142
107.033	193	155	138	162	123	12	119	77	82	-18	-6	28	-36	113	80	255	228
108.018	318	282	133	144	143	75	171	95	48	117	17	39	73	85	146	104	220
109.003	226	252	82	208	161	124	161	5	33	118	67	54	-16	108	4	133	133
109.989	65	158	145	109	114	40	27	10	-13	17	-88	-44	7	3	124	184	114
110.973	230	283	199	191	136	119	89	31	98	63	79	39	-42	111	161	72	193
111.958	68	36	24	21	-36	-78	25	-52	-159	-71	-91	-107	-151	12	-70	272	273
112.942	151	134	3	64	-72	-41	-26	-79	-41	-47	-15	-71	20	-130	33	160	111
113.926	95	211	188	188	115	124	50	63	41	113	-44	4	3	70	124	-17	-42
114.91	280	184	180	70	63	75	15	101	30	38	0	79	0	80	161	200	80
115.894	134	142	125	84	18	151	-5	-14	18	7	-95	20	9	8	121	233	167
116.878	191	228	138	82	141	88	109	69	49	97	52	-8	3	7	139	81	81
117.862	123	190	130	136	99	33	14	57	23	2	63	10	-27	103	203	65	74
118.845	103	185	67	76	101	57	25	-15	3	16	22	-71	-68	53	112	105	175
119.828	190	223	54	93	62	116	84	153	72	21	136	89	50	78	98	277	227
120.811	189	233	263	68	84	137	62	-34	80	101	-34	-66	15	108	169	170	75
121.794	151	119	179	133	103	79	1	-49	-59	-40	69	-7	-26	119	116	103	168
122.777	17	123	69	10	94	20	71	-17	-93	3	-67	-127	-97	-100	19	147	224
123.759	96	145	137	11	-62	16	-30	-51	-56	23	14	-200	-129	31	6	218	184
124.741	218	210	153	131	189	87	142	121	55	63	-46	-1	18	-10	78	139	203
125.724	180	115	181	146	70	18	28	11	24	10	-9	-45	-31	83	43	133	157
126.706	135	123	54	50	3	43	-42	-47	-99	-79	-11	-134	-111	-4	-34	150	164
127.687	218	210	153	131	189	87	142	121	-93	3	-67	-127	-97	-100	19	66	105
128.669	180	115	181	146	70	18	28	11	-56	23	14	-200	-129	31	6	159	205
129.651	51	54	-17	-25	-11	-11	-10	-103	-78	1	-156	-191	12	-49	-79	58	94
130.632	272	165	246	92	125	93	128	30	18	110	8	39	-46	112	133	218	253
131.613	56	160	56	47	84	-2	86	-60	-88	-18	-44	-65	-107	14	-4	156	212
132.595	206	201	93	118	74	-7	43	-8	-51	0	49	-11	39	47	108	183	211
133.575	139	133	104	48	96	71	71	-73	79	104	-30	27	-29	14	128	148	149
134.556	178	127	82	90	45	-49	14	-6	53	30	-28	-132	-11	117	-42	101	140
135.536	234	162	189	66	51	51	90	10	-4	22	-24	-19	-8	147	111	186	125
136.517	130	161	47	195	-2	15	-81	11	-65	138	-82	-64	-14	-6	-27	199	114
137.497	168	166	217	110	112	-12	91	28	106	61	41	67	12	17	113	143	190
138.477	119	123	42	124	71	38	64	-12	-16	-3	-20	-75	0	42	107	245	200
139.457	140	241	107	85	150	95	51	138	102	56	18	2	34	87	155	129	103
140.437	194	271	144	100	157	-35	67	67	-3	82	102	-34	-52	43	138	103	185
141.416	242	200	156	96	131	165	104	111	92	139	147	115	109	147	192	171	173
142.395	45	115	35	6	-29	-104	-49	-22	-20	-70	-84	-94	-111	-59	-54	144	61
143.375	121	205	218	172	81	141	130	105	52	146	20	16	28	155	125	112	251
144.354	105	141	36	111	98	38	100	51	-35	47	95	-60	26	19	6	255	232
145.333	114	164	74	39	15	1	-48	8	-23	16	-50	-118	14	-67	0	222	248
146.311	285	194	260	165	116	65	149	54	31	165	5	40	69	173	103	127	127
147.29	160	218	160	75	68	131	28	-28	77	100	-9	-54	33	4	133	271	210
148.268	95	156	86	7	114	10	99	2	83	-61	-94	-11	-142	77	55	103	98
149.246	178	159	85	87	137	53	25	136	-17	-1	3	-107	20	60	89	59	49
150.224	192	172	181	110	197	65	94	-35	-11	19	16	13	53	60	122	142	219
151.202	285	98	40	2	142	44	-83	-7	-78	8	-97	-85	-78	54	-21	76	169
152.18	160	28	35	62	27	52	-21	-151	-49	-81	-11	-61	-34	14	-46	167	227
153.157	178	195	124	70	46	63	22	-12	39	31	-16	38	34	81	67	233	248
154.135	130	253	110	180	136	97	-51	88	34	-13	7	-9	72	97	143	117	215
155.112	157	239	112	116	111	48	86	-50	64	59	25	56	15	83	-30	223	150
156.089	64	102	116	21	55	-43	-67	8	-26	-36	-57	-142	-88	-57	67	219	163
157.066	214	147	102	32	20	122	70	-34	-2	-23	-24	-6	-14	-36	134	137	201
158.043	207	254	141	201	143	89	126	105	82	102	-41	-13	64	105	70	208	138
159.019	231	178	201	117	213	133	43	81	87	84	77	48	69	100	127	229	248
159.995	48	147	46	36	48	9	66	-62	-89	-68	-9	-96	-166	29	12	231	190
160.971	149	217	190	168	66	58	30	52	-55	91	-9	-20	49	111	178	151	219
161.947	205	108	88	128	46	-105	-11	19	-53	9	-51	-34	-59	61	24	191	289
162.923	157	179	138	91	51	66	-4	7	52	7	-9	3	-25	-50	71	290	273
163.899	154	253	183	216	184	148	120	73	-43	181	144	32	66	159	67	241	222
164.875	197	195	193	52	140	113	41	78	-58	40	26	16	87	137	180	384	264
165.85	216	239	251	151	95	46	92	124	-46	105	102	42	33	79	161	216	318
166.825	208	180	177	94	172	69	103	-28	59	62	6	-24	-40	90	186	454	249
167.8	262	234	238	175	164	124	113	125	-12	92	101	3	69	85	232	369	313
168.775	199	195	118	4	22	154	96	40	39	26	12	-1	-26	105	292	522	435
169.75	346	179	229	145	188	40	79	39	60	148	22	45	39	165	232	504	403
170.724	313	278	275	191	215	90	118	52	73	147	99	148	-33	51	323	494	382
171.698	322	316	202	129	212	144	111	100	50	158	103	98	119	216	341	508	469
172.673	205	273	199	189	240	121	129	108	30	82	-11	27	61	91	270	620	341
173.647	306	278	255	157	229	88	138	37	21	83	66	46	11	120	292	657	432
174.621	227	189	190	224	153	109	150	152	86	154	80	14	146	161	304	680	522
175.595	255	313	287	176	168	63	72	44	0	75	173	135	19	50	349	674	635
176.568	226	363	128	165	88	126	59	10	126	9	133	136	97	129	419	801	565
177.541	232	244	211	121	124	111	134	89	20	109	132	30	47	145	375	763	573
178.514	390	415	262	314	191	153	213	146	137	168	239	174	180	274	498	779	727
179.488	236	240	168	208	132	85	114	43	33	62	18	-33	-52	140	415	967	776
180.46	350	268	285	235	196	190	154	109	156	210	202	105	181	242	514	929	679
181.433	253	256	202	209	157	64	78	93	123	84	123	103	88	181	489	1032	902
182.406	327	329	211	220	235	150	88	80	148	135	118	-79	95	243	576	1069	847
183.378	365	412	330	261	293	268	188	214	225	222	112	146	182	355	549	1155	842
184.35	415	370	298	276	236	165	249	248	155	210	195	204	159	316	713	1024	947
185.322	437	469	309	283	242	109	146	154	154	333	194	193	254	345	644	1177	971
186.294	359	366	241	204	212	128	190	186	161	195	147	226	152	282	654	1123	957
187.266	328	343	280	300	188	113	157	138	131	168	182	173	124	349	645	1370	1039
188.238	311	334	372	279	218	210	94	129	119	253	208	108	159	236	704	1305	1002
189.209	436	332	291	258	217	142	135	-6	148	149	87	168	194	267	687	1394	1148
190.18	513	359	454	382	215	267	192	226	248	203	307	274	254	417	833	1371	952
191.151	448	367	389	376	279	239	197	115	183	186	243	180	219	300	613	1503	1186
192.122	436	397	389	341	208	226	189	110	169	192	159	143	136	310	792	1434	1093
193.093	355	457	321	288	228	100	41	173	166	217	112	180	72	206	691	1584	1148
194.063	433	475	479	313	223	212	150	184	160	251	200	201	288	413	797	1458	1040
195.034	443	467	412	341	300	219	186	244	254	252	127	215	262	352	740	1419	1065
196.004	302	382	242	257	151	275	180	171	81	127	201	233	178	356	692	1456	1151
196.974	348	374	244	173	258	168	185	135	88	217	27	60	109	314	680	1454	1133
197.944	368	462	382	360	226	232	195	192	217	263	203	253	197	385	656	1357	1119
198.914	379	368	272	224	263	234	200	190	181	174	112	102	119	244	731	1380	1168
199.883	419	388	340	319	277	168	283	186	167	170	267	220	131	314	719	1590	1156
200.852	405	398	280	238	190	164	236	74	196	163	168	96	202	458	724	1486	1198
201.822	252	297	220	262	263	137	131	69	120	111	91	104	120	189	654	1407	1137
202.791	422	453	472	305	313	283	370	294	229	358	195	174	284	345	918	1470	1005
203.76	481	536	383	353	266	374	274	226	135	312	271	133	242	379	787	1543	1113
204.729	373	385	246	283	275	214	166	126	138	98	163	37	150	251	842	1618	1141
205.697	438	494	366	376	296	264	347	115	291	379	284	305	327	376	813	1503	1151
206.666	445	464	281	264	255	222	232	100	212	281	200	175	182	279	716	1562	1191
207.634	363	416	342	167	223	293	223	166	180	193	155	200	259	332	683	1522	1060
208.602	449	389	296	254	139	118	206	218	145	208	196	194	140	270	764	1416	1334
209.57	341	302	298	239	157	170	177	143	107	98	94	141	181	251	646	1566	984
210.538	427	473	424	305	232	123	135	223	175	199	210	145	173	331	798	1497	1085
211.505	444	549	479	373	348	327	289	362	278	305	212	313	229	410	861	1363	1107
212.473	346	431	366	269	283	216	214	234	176	281	143	219	209	335	715	1661	1214
213.44	239	408	321	289	122	263	204	165	154	283	230	149	180	278	720	1585	1186
214.407	482	445	467	306	282	224	196	261	231	295	244	206	196	411	803	1570	1207
215.374	376	414	342	260	170	260	185	162	88	144	196	127	130	212	688	1666	1126
216.34	377	488	273	319	275	271	205	255	169	209	226	130	297	406	812	1521	1175
217.307	508	382	453	405	261	298	275	311	326	214	239	301	305	405	833	1636	1066
218.273	463	499	419	361	324	219	284	197	263	284	241	238	395	384	883	1697	1193
219.24	312	359	162	230	259	177	128	192	69	70	178	143	146	278	739	1672	1211
220.206	467	491	397	373	363	339	238	316	286	381	251	323	301	455	849	1493	1164
221.172	435	443	338	384	290	177	216	152	53	221	146	28	200	378	662	1493	1260
222.137	559	513	535	505	394	357	297	232	265	383	259	257	298	398	861	1558	1255
223.103	487	424	276	357	292	314	161	192	127	290	346	140	249	402	863	1653	1308
224.069	508	536	408	305	346	283	300	292	164	446	394	252	297	366	921	1613	1360
225.034	586	393	427	365	261	329	310	252	244	226	219	269	432	365	927	1661	1250
225.999	422	441	398	320	314	281	200	103	131	252	167	138	224	289	727	1700	1286
226.964	575	589	521	490	461	341	401	247	189	314	321	260	252	424	985	1554	1237
227.929	500	442	353	317	302	138	115	153	183	118	242	127	191	386	795	1592	1172
228.893	466	425	289	314	214	238	204	228	114	272	226	183	186	397	877	1536	1093
229.858	473	467	375	300	225	98	194	166	57	174	196	214	297	300	753	1662	1300
230.822	548	627	525	426	473	388	259	343	306	400	313	335	334	476	921	1566	1287
231.786	532	470	351	400	229	123	158	211	238	210	193	199	257	328	835	1778	1368
232.75	447	503	375	391	292	163	129	181	111	210	255	148	225	307	827	1764	1187
233.714	516	575	422	426	238	252	281	222	207	347	275	233	263	368	1002	1584	1229
234.678	362	439	354	356	228	238	193	199	243	164	231	150	231	275	855	1682	1449
235.641	485	486	411	352	348	258	296	139	218	168	225	297	248	463	808	1736	1331
236.605	533	521	382	479	349	271	270	225	166	275	190	365	249	501	858	1797	1286
237.568	404	429	351	205	209	255	120	180	76	145	160	172	227	336	855	1774	1326
238.531	372	407	375	281	291	122	189	146	213	267	97	162	120	270	795	1727	1249
239.494	441	363	466	276	201	186	216	167	189	166	223	209	254	332	885	1694	1217
240.456	333	349	210	218	200	102	135	83	81	247	117	126	167	226	725	1636	1132
241.419	370	440	334	273	372	165	263	255	169	229	175	233	337	283	852	1679	1256
242.381	362	341	290	197	237	152	149	122	71	239	175	151	196	328	873	1590	1167
243.343	464	537	576	493	386	285	301	310	384	423	372	273	330	429	940	1727	1364
244.305	457	417	422	306	249	218	223	190	82	228	292	182	293	397	843	1643	1209
245.267	541	515	430	367	341	349	295	251	184	336	326	217	315	441	908	1706	1331
246.229	314	407	348	299	242	209	218	188	109	167	102	135	276	309	877	1648	1244
247.19	505	548	362	370	258	364	252	175	166	216	212	197	213	332	807	1763	1342
248.152	373	378	358	254	216	184	187	159	31	134	200	224	204	349	757	1704	1274
249.113	418	465	365	427	337	336	247	248	238	191	227	220	309	473	810	1548	1241
250.074	416	350	359	258	252	216	81	119	101	235	111	189	184	259	665	1630	1261
251.035	374	415	240	286	155	112	130	187	59	148	124	64	259	319	808	1661	1309
251.996	399	326	389	322	191	217	217	219	185	192	199	156	305	333	766	1662	1172
252.956	467	432	351	310	239	302	201	242	273	239	220	100	198	371	789	1862	1311
253.916	503	540	391	320	335	218	262	319	119	293	274	156	249	377	849	1546	1242
254.877	430	352	292	306	200	129	179	138	56	240	178	185	242	378	606	1625	1216
255.837	480	442	461	398	328	291	255	297	271	297	214	235	334	544	752	1484	1241
256.797	454	526	328	418	328	221	293	258	357	333	264	186	264	329	875	1591	1138
257.757	342	463	316	344	395	297	164	311	260	307	275	241	248	418	840	1615	1284
258.716	437	467	401	324	309	255	194	191	179	271	208	228	243	305	732	1526	1003
259.675	587	532	412	425	365	165	196	236	163	203	223	145	265	438	727	1517	1266
260.635	577	450	416	442	407	354	342	199	282	330	345	256	384	535	888	1580	1195
261.594	439	519	442	431	214	244	236	247	172	234	157	124	259	405	787	1650	1224
262.553	457	427	460	409	428	267	281	208	181	234	350	208	201	374	816	1485	1234
263.511	330	398	380	281	281	174	79	210	169	180	165	120	265	308	633	1542	1194
264.47	424	457	351	281	177	177	253	236	204	210	164	255	187	357	712	1685	1163
265.428	458	501	483	458	197	261	269	277	220	278	163	272	293	424	867	1567	1310
266.387	376	347	273	321	91	175	163	60	52	200	122	80	161	329	675	1543	1197
267.345	394	477	392	265	316	163	229	170	220	124	151	139	262	511	796	1516	1173
268.303	519	497	364	263	334	250	268	182	213	262	253	138	234	416	823	1642	1259
269.261	367	461	283	293	309	223	182	169	193	256	197	211	203	225	727	1459	1067
270.218	320	465	269	204	204	162	168	211	137	160	139	125	243	263	663	1504	1196
271.175	503	427	380	346	334	353	262	242	219	307	285	228	212	464	839	1674	1136
272.133	427	494	302	308	238	112	135	209	224	176	140	250	194	356	802	1576	1091
273.09	383	382	354	206	350	281	156	164	68	186	106	232	272	357	736	1560	1180
274.047	519	437	420	406	337	300	271	305	320	266	314	363	389	444	837	1571	1125
275.004	252	376	247	109	231	169	188	120	86	188	29	132	162	271	788	1658	1085
275.96	384	496	329	238	219	196	246	160	148	191	169	125	247	252	773	1594	1192
276.917	359	398	441	304	292	183	230	240	154	263	333	165	190	382	753	1536	1334
277.873	521	442	524	425	346	236	295	219	223	330	325	205	236	310	834	1540	1174
278.829	422	454	455	415	351	333	224	226	277	281	214	192	232	358	688	1741	1269
279.785	512	501	466	352	380	298	304	265	208	334	274	232	315	427	849	1585	1291
280.741	479	394	359	455	291	295	273	291	266	248	196	338	439	409	847	1641	1197
281.697	515	547	436	274	303	238	276	218	223	284	350	230	305	358	844	1568	1158
282.652	577	486	470	454	327	322	339	298	323	250	266	303	350	530	835	1549	1163
283.608	333	404	378	314	210	251	247	149	109	248	244	186	270	300	846	1618	1235
284.563	580	490	445	429	327	268	319	259	254	284	161	311	397	417	853	1764	1405
285.518	407	366	390	343	219	103	146	4	11	259	66	153	114	238	793	1647	1315
286.473	517	509	492	352	293	254	258	334	79	300	282	226	275	354	802	1719	1311
287.428	493	435	466	374	244	159	204	324	254	303	313	98	195	377	848	1600	1291
288.382	399	490	416	322	273	205	96	116	96	157	160	198	157	379	834	1718	1182
289.336	463	449	389	364	235	262	102	151	132	270	112	173	151	271	806	1843	1206
290.29	565	545	475	419	268	365	267	182	277	208	298	166	294	301	774	1812	1306
291.245	353	443	367	271	271	127	147	175	145	146	119	118	102	258	807	1731	1330
292.199	529	509	421	388	272	284	249	292	156	189	203	210	364	372	833	1810	1232
293.152	622	590	435	412	405	208	321	135	230	234	254	161	253	414	794	1782	1161
294.106	385	495	387	343	165	199	121	222	21	211	71	65	197	299	759	1522	1258
295.059	572	525	476	335	316	252	233	271	45	236	206	277	203	282	801	1517	1184
296.012	524	580	477	382	300	281	267	13	111	192	317	136	232	330	632	1736	1418
296.966	440	652	376	278	189	214	204	73	116	67	123	76	143	280	673	1574	1327
297.918	642	603	453	485	344	242	278	301	247	316	227	259	316	380	791	1649	1200
298.871	648	638	441	391	472	267	281	182	289	358	247	277	282	363	853	1503	1204
299.824	576	546	455	337	329	272	266	156	166	287	168	150	112	310	805	1727	1202
300.776	555	595	461	313	337	241	272	272	196	253	269	281	254	480	847	1722	1374
301.728	357	435	444	383	319	205	204	69	171	194	174	151	199	278	844	1637	1240
302.68	414	521	395	278	326	191	236	127	160	173	162	184	190	386	807	1718	1365
303.632	428	450	318	308	188	152	101	114	85	114	104	118	192	214	656	1557	1248
304.584	632	487	384	334	228	278	340	210	197	285	263	211	252	390	810	1578	1171
305.536	476	528	365	394	232	183	210	191	141	237	114	133	169	259	726	1675	1156
306.488	447	384	338	316	247	220	234	167	206	177	128	87	97	246	868	1614	1321
307.439	582	476	562	405	287	195	255	215	145	335	348	176	272	322	813	1678	1312
308.39	552	463	420	296	178	178	150	190	111	248	198	180	116	329	704	1717	1342
309.341	559	554	496	380	352	209	246	143	188	285	303	126	193	291	709	1711	1202
310.292	649	497	509	471	287	164	249	149	137	229	206	199	235	385	818	1711	1158
311.242	434	492	408	344	191	251	157	178	97	177	55	106	87	219	744	1774	1309
312.193	649	581	475	484	342	183	205	265	184	280	158	173	185	299	836	1588	1253
313.143	494	611	443	339	353	190	186	163	73	162	194	94	107	201	672	1635	1160
314.093	634	640	378	425	226	229	211	164	254	134	232	113	232	273	745	1618	1208
315.044	708	666	540	456	301	271	185	272	177	219	246	197	307	353	809	1677	1211
315.993	764	784	603	527	381	352	317	295	317	293	370	316	241	403	943	1616	1205
316.943	746	720	636	513	342	279	223	139	192	157	273	180	261	330	784	1676	1260
317.893	635	622	535	477	166	219	178	94	153	222	86	94	245	270	711	1788	1210
318.842	817	713	700	416	364	197	185	236	146	273	204	217	245	350	740	1545	1177
319.791	847	786	704	542	363	313	311	111	220	251	296	188	289	370	759	1716	1227
320.74	751	752	719	525	268	295	313	281	205	202	164	277	209	324	773	1683	1214
321.689	676	718	506	314	205	183	182	36	179	138	156	60	81	224	719	1496	1167
322.638	916	761	638	561	375	193	222	235	102	269	149	201	238	318	818	1658	1315
323.586	941	909	686	632	258	215	209	206	291	195	220	212	252	342	759	1587	1074
324.535	980	888	602	553	393	217	269	260	264	338	310	219	301	270	864	1690	1220
325.483	800	868	730	565	284	313	163	319	157	252	190	155	288	336	848	1636	1334
326.431	980	847	717	657	403	251	386	371	296	343	296	211	318	403	885	1593	1183
327.379	877	801	569	508	444	188	188	204	199	185	231	197	243	468	761	1668	1165
328.327	917	766	563	469	409	245	236	246	262	358	249	253	185	388	853	1729	1364
329.274	724	769	559	551	260	188	242	173	138	206	207	109	234	302	724	1755	1350
330.222	798	824	679	571	294	176	273	195	190	270	322	222	252	360	804	1829	1102
331.169	790	800	581	496	300	172	151	116	170	225	152	202	136	211	728	1794	1353
332.116	856	779	603	505	330	201	219	198	180	235	162	155	55	243	820	1812	1306
333.063	942	779	584	503	332	250	257	160	196	242	243	147	223	352	737	1966	1348
334.01	1085	982	808	651	426	405	362	373	305	312	217	217	264	340	794	1831	1337
334.957	806	823	600	467	262	168	192	82	60	147	93	87	92	321	729	1891	1314
335.903	1090	925	864	698	411	328	338	309	260	253	318	257	331	358	983	1695	1336
336.849	989	872	778	550	308	217	135	207	70	167	201	118	242	247	739	1815	1334
337.796	1354	1262	873	691	505	283	201	227	222	282	242	256	345	385	945	1753	1413
338.742	1238	1034	902	717	510	374	314	157	197	277	190	178	207	279	902	1961	1383
339.688	1491	1245	1043	844	436	294	201	223	209	250	231	219	262	361	933	1999	1342
340.633	1538	1305	1095	783	474	280	285	253	112	294	310	213	213	368	965	1909	1316
341.579	1712	1382	1077	773	401	255	156	154	137	123	160	152	154	287	899	1950	1340
342.524	1786	1481	1356	934	545	423	182	104	211	216	203	121	322	340	826	2049	1361
343.47	1883	1723	1339	947	564	295	372	266	198	197	174	218	185	325	940	1927	1400
344.414	2147	1817	1357	1094	669	281	357	233	125	275	365	155	218	311	922	1993	1307
345.359	2338	1825	1567	1274	680	475	338	307	300	219	194	242	393	306	972	1724	1339
346.304	2465	2057	1669	1195	558	332	293	145	155	203	223	170	226	280	931	1797	1334
347.249	2818	2292	1822	1443	775	363	378	228	285	325	362	211	199	416	1078	1849	1376
348.193	2891	2310	1982	1368	695	368	263	203	133	172	203	93	125	304	786	1633	1251
349.137	3225	2441	1944	1444	581	408	363	226	148	275	218	208	227	316	835	1949	1328
350.081	3184	2643	2212	1540	847	598	356	313	260	254	331	300	346	475	947	1755	1247
351.025	3016	2570	2044	1359	711	366	327	276	137	277	167	182	284	387	749	1748	1263
351.969	3109	2450	1878	1495	719	277	250	116	148	168	179	215	234	305	783	1828	1242
352.913	3006	2443	2014	1423	793	629	430	294	265	324	350	384	274	420	888	1378	1094
353.856	2879	2320	1865	1280	680	418	410	351	228	267	248	189	336	319	884	1813	1251
354.8	2512	1976	1465	1193	594	405	371	214	187	234	285	145	306	276	805	1569	1225
355.743	2069	1626	1302	1096	471	306	173	173	124	205	57	145	208	284	757	1788	1272
356.686	1693	1425	1095	780	414	284	204	233	201	165	308	138	233	331	682	1626	1257
357.628	1401	1034	869	607	388	285	192	173	193	296	143	112	199	260	774	1641	1196
358.571	1022	862	712	556	349	189	148	168	167	236	132	63	84	253	759	1549	990
359.513	890	925	662	539	474	264	283	238	286	336	194	282	287	438	710	1725	1076
360.456	787	729	578	509	328	236	225	209	245	143	195	159	233	265	705	1529	1186
361.398	729	696	513	484	329	182	253	280	167	211	206	241	210	311	750	1603	1084
362.34	675	670	467	441	294	198	179	200	277	268	228	220	101	314	693	1581	1157
363.282	619	619	382	364	255	296	183	177	227	194	264	106	215	313	738	1630	1104
364.224	690	616	535	482	345	271	252	293	246	191	307	263	235	293	832	1586	1164
365.165	619	516	567	398	240	257	216	274	211	273	155	211	329	309	714	1597	1064
366.107	778	574	565	405	326	237	243	197	128	239	210	198	195	363	755	1480	1063
367.048	604	605	501	408	383	293	333	117	249	289	241	292	257	339	758	1555	1052
367.989	549	629	362	374	297	176	287	177	114	166	56	234	155	325	639	1454	1156
368.93	651	543	448	437	335	307	292	320	291	295	275	189	213	387	823	1544	1162
369.871	655	560	443	491	259	330	196	201	237	289	261	223	247	406	837	1441	1079
370.811	626	653	439	456	263	271	266	248	139	290	329	196	274	412	827	1468	1191
371.752	472	454	449	298	269	209	107	160	88	123	137	73	113	237	659	1427	1139
372.692	550	628	483	350	282	332	309	208	229	304	352	345	316	350	699	1565	1292
373.632	538	563	402	457	349	259	300	230	313	294	368	229	339	341	837	1533	1182
374.572	487	489	511	318	276	311	272	202	154	217	278	166	159	346	710	1421	1114
375.512	494	507	480	322	282	286	257	162	264	236	295	220	209	350	915	1402	1306
376.452	495	569	340	467	333	276	247	263	238	269	214	234	228	308	872	1484	1094
377.391	505	468	426	404	261	301	277	110	239	164	187	121	285	393	702	1383	1211
378.33	464	449	367	421	236	218	275	222	208	289	153	179	196	302	675	1412	1189
379.269	562	481	447	328	377	274	267	241	240	297	255	296	203	369	731	1540	1128
380.208	564	498	336	454	289	285	289	204	253	292	275	219	294	389	680	1563	1083
381.147	438	439	342	343	258	249	142	172	108	186	142	96	248	268	693	1495	1115
382.086	451	499	501	491	460	349	319	212	185	392	211	228	378	396	750	1579	1149
383.025	445	480	352	264	264	151	276	210	121	233	212	168	159	345	663	1465	1130
383.963	497	605	429	315	282	270	331	326	270	315	287	194	250	345	795	1577	1101
384.901	322	398	477	340	153	100	110	117	117	211	82	48	211	223	592	1513	1068
385.839	417	330	330	412	167	212	237	215	151	225	151	151	194	228	680	1559	1167
386.777	404	457	421	410	327	256	263	360	222	126	195	170	324	416	792	1402	946
387.715	576	490	371	408	272	277	233	343	235	232	217	203	284	484	796	1485	1082
388.652	480	436	492	399	239	207	162	197	209	204	306	248	163	369	701	1497	1244
389.59	345	423	392	123	205	139	140	108	134	132	14	95	99	285	626	1573	1058
390.527	404	473	481	454	262	261	221	187	156	292	272	227	238	363	655	1533	1045
391.464	527	515	370	313	290	223	281	223	185	222	178	207	230	324	721	1621	999
392.401	407	467	326	272	301	186	293	159	223	237	180	209	199	337	712	1595	1048
393.338	440	573	391	384	297	278	204	227	228	412	195	256	264	325	805	1540	1028
394.274	413	437	327	351	174	236	239	184	138	252	203	150	185	227	694	1617	1278
395.211	450	479	415	385	268	115	175	148	126	161	253	86	229	254	674	1538	1105
396.147	487	461	421	408	266	260	277	159	227	273	178	216	225	373	735	1600	1112
397.083	378	342	230	168	196	155	110	144	112	167	156	102	59	290	619	1693	1282
398.019	533	476	423	440	433	356	335	279	299	383	344	315	377	453	882	1628	1031
398.955	503	521	319	397	319	200	242	225	185	313	178	135	285	331	810	1753	1250
399.891	479	521	395	379	307	246	283	179	262	250	311	261	225	357	823	1634	1210
400.827	420	488	378	333	317	219	284	175	165	261	167	102	273	349	776	1826	1179
401.762	422	516	421	355	332	255	222	261	225	318	310	142	335	324	949	2078	1382
402.697	414	482	445	322	358	192	249	226	215	227	178	190	195	268	826	2137	1333
403.632	392	445	487	351	341	260	276	213	233	314	192	160	179	286	912	2107	1428
404.567	469	592	476	402	306	220	278	208	153	281	229	294	215	446	1005	2245	1537
405.502	425	508	378	335	169	204	141	129	164	205	159	137	253	270	812	2293	1521
406.436	558	561	431	389	329	206	196	249	130	186	220	314	284	317	1144	2448	1614
407.371	556	524	532	376	360	266	216	321	157	295	302	128	276	377	1060	2565	1817
408.305	527	501	507	428	364	360	220	279	93	388	213	281	316	369	1108	2656	1562
409.239	680	598	508	521	408	444	356	390	293	295	357	401	350	529	1188	2551	1607
410.173	724	727	614	577	489	371	393	280	383	350	344	310	343	502	1010	2347	1498
411.107	622	650	496	474	488	321	345	254	222	357	346	137	378	352	1037	2194	1335
412.041	716	764	658	629	525	403	413	309	222	308	188	281	272	382	820	2021	1385
412.974	701	777	774	631	544	431	424	263	203	274	249	272	301	360	865	1920	1195
413.907	867	882	776	707	529	374	225	212	187	243	170	159	196	285	714	1712	1183
414.84	1087	1049	914	733	483	468	401	260	305	205	211	259	212	439	784	1729	1257
415.774	1288	1189	1060	964	653	395	340	276	352	283	311	284	281	378	823	1613	1173
416.706	1093	1034	1050	731	524	361	276	229	250	241	286	173	145	320	737	1653	1241
417.639	1027	1018	836	645	459	367	309	252	233	268	227	247	246	343	744	1654	1248
418.571	898	770	706	623	343	349	195	164	202	252	284	176	151	315	696	1562	1043
419.504	611	579	563	253	281	127	92	70	105	145	135	159	167	251	637	1742	1179
420.436	624	575	471	495	225	348	252	338	238	299	233	232	395	359	742	1570	1049
421.368	499	513	412	380	274	241	224	191	186	175	189	264	189	369	714	1520	1004
422.3	511	518	405	377	279	249	298	193	196	195	179	251	287	334	744	1633	1174
423.232	480	416	344	349	281	192	105	295	176	218	203	103	208	338	702	1519	1048
424.163	432	480	284	337	268	227	123	200	102	312	165	110	110	300	630	1508	1070
425.095	467	498	475	408	422	316	367	334	194	366	309	356	316	404	709	1748	1159
426.026	432	435	366	316	252	242	166	164	238	246	147	217	226	291	693	1512	1067
426.957	517	402	432	472	345	396	343	378	186	273	250	207	339	376	725	1448	1020
427.888	404	310	358	302	201	191	220	140	196	216	208	128	163	188	663	1502	1087
428.819	391	387	284	432	232	153	151	156	94	150	153	186	229	217	637	1616	1101
429.75	399	320	379	368	368	288	305	223	220	282	278	129	273	296	754	1700	1167
430.68	453	411	404	369	329	225	276	314	209	347	263	175	190	342	635	1475	1036
431.611	602	555	558	357	335	361	341	319	189	350	217	325	333	414	853	1554	1015
432.541	340	495	447	338	373	289	211	277	200	323	296	150	303	359	767	1519	1171
433.471	445	450	432	397	358	182	326	171	240	238	243	223	201	367	778	1623	1126
434.401	427	471	432	333	348	348	275	235	230	284	286	150	327	389	818	1529	1054
435.33	412	415	309	304	214	287	190	217	200	222	213	329	264	354	726	1528	1025
436.26	493	497	401	381	257	236	188	281	265	199	294	175	169	412	672	1569	1038
437.189	295	350	263	308	234	135	195	195	156	249	145	168	47	338	600	1522	1088
438.119	386	452	372	376	202	206	138	154	174	176	177	110	229	297	670	1543	1192
439.048	439	367	387	338	296	193	255	257	96	246	160	177	253	251	649	1583	1234
439.976	461	397	454	309	391	234	170	182	261	265	296	264	208	317	764	1561	1144
440.905	512	570	462	389	355	340	259	255	245	383	289	202	282	439	736	1443	995
441.834	502	398	398	361	243	229	320	282	228	302	190	303	287	330	789	1544	1034
442.763	519	372	348	309	275	244	249	221	311	163	179	171	190	333	785	1328	1078
443.691	392	428	427	356	359	255	238	153	250	299	254	249	226	355	739	1479	976
444.619	396	418	378	254	310	138	240	205	146	144	175	194	265	277	684	1591	1058
445.547	426	366	300	264	242	200	151	108	94	193	189	79	178	422	648	1450	1122
446.475	322	389	321	418	208	188	173	203	251	303	255	171	240	274	658	1619	1285
447.402	428	424	394	323	222	251	148	186	143	231	183	105	250	341	631	1452	925
448.33	519	446	497	360	256	226	291	321	229	274	324	275	294	377	731	1454	1035
449.257	426	481	364	323	199	89	185	243	112	251	185	157	216	298	637	1508	1037
450.184	420	503	342	310	267	246	310	150	169	216	162	161	188	345	641	1423	1135
451.112	354	386	279	212	241	210	215	104	223	224	186	119	160	203	687	1516	1061
452.038	442	413	354	417	299	298	281	207	289	293	236	240	315	332	630	1467	1152
452.965	462	423	454	461	353	185	290	251	191	347	256	273	306	410	766	1696	1051
453.892	405	426	431	328	222	266	126	255	189	246	287	183	186	423	691	1385	1085
454.818	364	436	354	296	169	156	176	164	140	226	166	120	226	246	640	1664	1070
455.744	374	441	318	392	235	168	257	210	152	222	265	256	241	294	602	1569	1068
456.671	493	419	422	296	307	172	231	217	169	265	136	317	303	299	699	1548	1136
457.597	579	535	476	438	438	383	300	331	336	394	360	345	303	553	814	1571	1055
458.522	439	409	482	363	309	278	213	226	263	321	252	280	216	410	669	1673	990
459.448	402	358	381	255	273	325	212	230	153	249	204	145	115	388	641	1368	1039
460.374	237	378	321	229	222	161	203	93	118	236	92	181	222	250	647	1496	1022
461.299	447	438	334	463	387	348	256	324	238	307	293	279	321	282	771	1391	1047
462.224	420	495	432	274	266	231	227	218	206	261	285	244	214	265	699	1483	1045
463.149	511	490	410	462	375	314	275	284	249	225	293	284	272	328	753	1399	1058
464.074	428	405	275	274	237	211	93	232	163	230	165	63	216	242	815	1278	991
464.999	374	478	391	284	211	207	182	204	72	174	231	185	188	330	698	1524	1050
465.923	390	449	356	312	313	238	285	257	119	188	233	217	225	348	714	1445	1028
466.847	498	422	415	418	307	323	254	310	225	290	289	201	251	274	734	1455	1072
467.772	318	340	258	299	207	70	217	129	64	162	80	82	49	227	597	1329	1031
468.696	466	536	426	352	279	287	202	273	237	218	133	283	265	264	662	1451	1077
469.62	644	514	502	396	450	397	247	283	275	279	326	314	353	389	791	1482	1068
470.544	485	457	394	400	316	318	256	225	254	249	197	166	322	306	675	1408	1023
471.467	431	294	258	252	186	193	74	140	206	167	95	142	172	237	627	1423	909
472.391	537	438	507	377	345	286	227	233	263	330	286	321	262	409	736	1545	1095
473.314	453	419	371	459	310	222	177	136	151	235	159	101	121	276	620	1277	937
474.237	479	530	528	381	303	209	241	288	199	271	314	264	245	421	735	1479	988
475.16	345	348	385	263	226	143	136	93	59	127	141	133	120	224	580	1409	1060
476.083	498	466	465	358	325	215	236	205	287	286	309	244	279	387	735	1423	1086
477.006	371	512	440	438	307	185	227	223	202	228	253	231	189	359	686	1357	1051
477.928	348	385	477	339	262	278	177	249	128	195	232	167	293	445	696	1412	962
478.851	426	446	453	280	364	198	241	193	235	286	164	294	224	394	699	1407	1064
479.773	462	420	431	462	277	234	136	297	376	232	299	214	294	371	660	1564	1091
480.695	328	441	343	420	373	299	254	165	210	147	296	86	161	240	627	1467	1123
481.617	388	416	357	358	194	62	217	166	168	184	222	174	242	274	634	1612	1018
482.539	431	510	408	413	322	287	202	389	228	337	278	201	249	376	682	1258	994
483.46	390	397	337	282	194	233	185	101	143	182	175	83	234	193	585	1452	965
484.382	526	526	380	378	313	349	319	298	203	390	173	175	310	379	738	1254	943
485.303	380	440	382	330	222	314	195	236	155	253	176	209	240	271	625	1475	1141
486.224	376	422	423	432	247	270	241	237	230	205	157	122	169	404	664	1525	1028
487.145	417	370	337	431	278	318	192	113	75	222	158	202	227	357	619	1490	1136
488.066	412	450	358	330	245	172	258	165	217	302	261	175	262	294	633	1562	1089
488.987	498	464	476	501	387	353	322	306	220	260	291	310	317	455	665	1430	1034
489.907	451	583	511	316	248	185	249	249	176	322	260	208	230	445	786	1429	1162
490.828	409	431	458	328	294	299	131	238	281	260	195	144	161	200	580	1384	977
491.748	421	455	403	385	412	256	220	252	243	262	171	235	253	213	643	1529	1192
492.668	446	524	439	403	245	200	190	233	183	290	259	122	242	340	752	1371	951
493.588	494	522	440	365	390	389	273	181	237	300	267	202	279	420	663	1494	1055
494.508	451	483	458	339	204	276	190	206	166	208	181	263	200	381	786	1412	1062
495.427	483	636	510	432	300	358	277	329	273	367	245	282	326	407	809	1499	1026
496.347	492	475	424	367	322	207	213	208	296	303	251	237	317	421	787	1533	1215
497.266	548	597	503	442	361	276	331	292	144	345	271	322	230	447	729	1455	1094
498.185	435	486	408	286	352	296	282	241	195	286	222	222	161	306	686	1420	1068
499.104	531	492	414	411	261	207	292	241	287	265	304	194	431	332	716	1355	1084
500.023	344	351	368	343	327	336	254	163	156	254	157	203	223	343	690	1452	1033
500.942	394	441	337	325	285	166	197	136	135	211	189	128	234	302	619	1542	991
501.86	431	422	329	329	162	270	141	138	92	229	226	136	205	391	599	1425	968
502.779	534	515	478	426	344	254	340	283	360	324	274	258	288	356	746	1403	959
503.697	486	477	476	357	251	339	227	215	196	274	181	154	257	332	660	1519	966
504.615	472	550	488	416	342	303	174	188	197	304	273	296	266	424	700	1499	1084
505.533	510	607	418	351	322	332	217	159	287	323	197	306	369	354	755	1569	1103
506.45	556	640	451	396	364	330	193	322	282	319	337	272	260	370	866	1611	1150
507.368	354	431	406	319	211	221	158	207	38	186	202	188	126	214	578	1512	1090
508.286	542	546	348	350	199	230	270	306	209	291	265	180	191	337	704	1304	1108
509.203	586	658	507	451	362	272	339	271	287	237	388	346	300	429	717	1498	1110
510.12	578	579	483	402	322	238	183	204	217	331	266	132	358	345	595	1457	1052
511.037	559	532	462	409	338	247	302	158	187	229	311	136	234	257	647	1598	1103
511.954	523	462	523	403	272	347	239	324	266	281	250	244	363	334	767	1505	1134
512.87	542	603	493	452	358	280	267	289	254	345	257	215	312	333	712	1489	1038
513.787	562	588	546	485	427	288	243	265	213	351	331	301	302	364	713	1444	1114
514.703	575	502	436	425	421	254	198	231	285	278	197	189	269	408	795	1435	1023
515.619	584	652	432	428	356	276	233	220	186	290	154	199	303	378	639	1419	1008
516.536	561	506	456	397	199	217	278	229	163	140	212	180	191	416	640	1463	1016
517.452	597	615	447	382	401	263	268	150	114	242	181	218	152	345	696	1454	1099
518.367	679	622	510	541	422	302	335	263	173	276	298	297	248	281	696	1488	1043
519.283	612	644	568	507	433	308	340	263	184	281	222	214	277	360	682	1401	1016
520.198	678	686	657	455	314	286	195	279	235	300	262	185	210	274	615	1473	1143
521.114	611	679	532	442	351	361	279	139	178	309	308	211	254	374	776	1350	971
522.029	636	556	498	430	341	182	215	164	219	274	156	197	159	344	625	1521	1138
522.944	676	609	551	451	297	269	296	259	197	272	275	216	228	156	624	1500	1195
523.858	540	507	485	428	336	160	280	217	208	151	244	231	273	319	608	1590	1020
524.773	547	627	665	460	339	315	348	214	370	212	250	250	208	412	769	1527	1105
525.688	693	697	501	475	367	376	219	253	229	259	327	316	442	391	737	1466	1013
526.602	563	622	621	443	436	322	203	207	336	245	184	153	325	279	641	1354	1106
527.517	638	639	590	438	373	357	361	225	224	417	358	283	391	444	712	1355	1003
528.43	582	580	589	479	351	322	330	338	266	303	278	237	370	358	636	1338	935
529.344	534	563	461	460	371	235	278	249	194	330	247	261	334	461	679	1410	1020
530.258	478	498	350	426	239	92	236	107	146	170	169	132	156	219	603	1504	1069
531.172	426	455	473	397	276	276	234	336	176	178	250	166	210	264	548	1448	1044
532.085	559	566	464	467	274	364	296	331	286	393	295	215	349	417	707	1457	1049
532.998	448	431	337	348	338	247	179	135	80	184	206	128	100	215	694	1565	1202
533.912	512	542	592	371	409	259	328	324	370	338	346	174	369	355	786	1383	1012
534.824	581	487	464	380	354	255	241	218	236	273	367	283	252	322	659	1484	1092
535.737	505	612	469	448	466	315	373	300	326	319	322	309	330	375	809	1475	1075
536.65	507	478	476	447	465	350	387	331	246	400	267	375	286	420	803	1401	1081
537.563	496	561	447	408	306	271	295	267	275	351	249	303	400	396	652	1420	1119
538.475	514	487	443	426	282	247	254	230	107	256	273	203	303	365	701	1514	913
539.387	443	457	451	309	339	260	201	236	206	216	150	118	221	410	646	1478	1048
540.299	392	383	444	287	216	209	123	231	96	223	164	254	216	278	547	1446	937
541.211	551	501	376	378	320	355	198	198	237	247	243	196	285	341	661	1209	920
542.123	581	484	487	384	485	282	306	271	261	342	249	335	301	503	786	1402	946
543.035	552	419	386	324	379	379	279	264	275	280	259	340	335	329	651	1386	939
543.946	460	484	510	472	364	261	263	296	261	331	255	302	255	365	840	1344	966
544.857	483	368	428	347	225	310	194	261	246	252	176	192	198	326	583	1467	1023
545.769	496	477	408	408	368	245	295	260	370	208	299	254	316	389	753	1360	915
546.68	528	424	379	342	382	366	297	243	187	237	293	284	335	382	731	1386	1000
547.591	427	446	427	389	348	219	266	254	229	240	252	309	342	325	683	1304	988
548.501	458	548	443	417	359	247	299	298	195	346	320	275	259	341	696	1396	1007
549.412	446	320	432	302	288	339	314	176	92	328	324	157	177	298	699	1422	1009
550.322	403	534	443	347	329	237	230	297	202	225	200	311	364	294	601	1207	999
551.232	352	497	328	335	224	149	265	276	243	225	340	161	217	246	693	1362	1040
552.143	391	467	525	332	295	239	285	192	225	284	294	299	238	385	667	1495	1039
553.052	415	427	411	320	262	276	291	319	165	267	251	183	293	342	680	1309	1020
553.962	439	411	330	245	253	258	185	263	160	279	219	197	221	329	589	1414	1068
554.872	530	541	393	330	294	379	180	226	180	210	277	203	263	369	662	1384	1017
555.781	516	548	405	325	386	298	271	300	182	312	380	228	294	304	783	1368	998
556.691	339	381	273	282	210	185	251	113	69	139	111	66	205	232	580	1385	940
557.6	392	398	345	352	265	222	271	274	213	270	193	172	260	254	645	1478	1009
558.509	500	503	434	374	344	293	247	173	83	251	246	155	306	336	632	1350	1027
559.418	533	535	509	467	361	288	430	315	378	309	336	330	288	413	741	1407	1109
560.326	405	446	440	374	258	258	274	251	245	266	185	307	224	382	650	1565	936
561.235	274	421	336	274	188	211	120	190	101	117	223	86	163	257	651	1349	1100
562.144	467	333	504	385	280	195	238	234	261	200	221	207	325	208	614	1431	1069
563.052	344	490	378	346	267	280	269	224	207	282	225	174	269	349	737	1472	1130
563.96	497	417	299	393	194	233	276	168	90	148	130	140	224	362	582	1530	1121
564.868	493	484	349	343	221	268	197	217	142	208	267	136	174	314	499	1351	932
565.775	539	468	451	428	333	314	292	206	317	289	328	302	318	407	725	1517	1098
566.683	461	469	350	356	227	191	224	155	195	266	218	228	197	267	562	1449	1068
567.591	584	489	470	422	410	297	250	171	286	259	276	212	253	348	767	1407	1042
568.498	549	522	564	545	376	205	425	283	316	286	385	292	363	386	816	1473	1079
569.405	558	524	475	379	402	319	285	332	299	219	331	184	355	375	645	1437	965
570.312	531	565	511	383	361	328	289	176	200	266	314	279	292	409	700	1452	1021
571.219	588	550	534	461	340	370	233	313	192	288	266	316	276	396	784	1468	1016
572.126	581	538	491	392	276	216	437	143	287	361	281	244	251	366	640	1373	1047
573.032	494	501	503	468	378	313	191	268	208	295	321	240	248	284	542	1439	1087
573.939	617	742	614	423	444	318	382	305	350	329	286	351	324	480	921	1529	1044
574.845	450	532	468	406	321	352	182	285	181	296	223	164	247	247	632	1352	1060
575.751	663	546	562	392	368	180	235	172	321	331	287	197	261	283	639	1478	994
576.657	591	483	461	526	320	233	126	135	191	264	192	196	250	355	593	1514	1093
577.563	648	635	523	551	400	374	317	329	247	300	330	298	335	402	826	1362	978
578.469	642	671	583	539	434	302	244	238	272	244	329	192	240	348	670	1415	982
579.374	588	621	431	460	298	112	205	100	131	205	119	178	176	263	587	1326	1085
580.28	670	753	584	538	307	298	282	343	366	288	356	299	289	367	720	1469	1191
581.185	599	627	537	458	270	260	191	176	219	154	286	203	234	372	621	1367	949
582.09	644	639	462	521	320	256	328	261	287	291	233	289	303	442	649	1517	1068
582.995	673	734	589	536	456	405	296	256	322	515	332	242	414	511	744	1313	1012
583.9	528	637	549	472	422	388	390	287	355	370	320	301	326	475	802	1654	1128
584.805	568	423	445	384	224	109	202	96	177	158	215	155	144	306	546	1419	1070
585.709	369	412	237	265	187	187	116	156	139	192	194	103	255	249	661	1373	1003
586.613	551	380	292	370	342	301	287	310	248	311	331	288	296	289	775	1495	1057
587.517	429	446	463	358	312	263	229	273	248	308	211	186	265	349	600	1425	1126
588.421	403	373	399	253	362	261	280	253	142	217	261	296	160	286	648	1523	936
589.325	408	442	395	392	392	381	296	226	246	285	332	216	284	355	705	1481	970
590.229	418	471	442	365	368	301	200	290	263	271	266	330	344	346	738	1464	1080
591.132	399	396	421	328	221	176	224	251	155	175	194	235	122	320	700	1466	975
592.036	484	454	528	368	317	234	266	284	284	358	355	323	244	492	711	1413	1057
592.939	417	593	440	321	316	330	311	303	262	231	322	350	296	464	680	1382	977
593.842	500	491	400	413	370	340	300	294	339	299	341	306	232	304	630	1346	932
594.745	472	465	427	314	217	222	245	211	261	258	257	184	299	349	729	1422	1124
595.648	476	492	390	400	423	423	186	312	212	327	326	165	244	418	856	1443	975
596.551	466	440	294	364	339	167	336	245	267	291	306	244	367	323	569	1348	953
597.453	414	496	478	445	366	339	266	231	228	383	368	314	287	483	712	1514	1168
598.355	498	527	468	423	290	238	265	197	256	294	160	239	224	365	749	1506	1010
599.258	446	515	379	366	324	331	272	291	247	343	432	399	345	410	831	1477	993
600.16	279	426	256	258	252	150	192	110	126	258	125	161	236	323	570	1360	903
601.062	456	531	420	372	327	354	326	318	323	337	334	303	278	402	710	1482	1081
601.963	421	383	359	376	217	180	306	261	148	296	224	302	373	276	567	1362	1163
602.865	401	419	266	320	234	219	266	320	231	265	249	305	142	423	611	1383	989
603.767	441	380	433	378	280	189	220	153	199	235	309	168	333	370	540	1445	986
604.668	376	297	350	280	310	337	185	216	201	202	259	237	224	333	626	1411	932
605.569	532	504	485	455	332	476	393	358	489	343	392	439	362	502	667	1376	1015
606.47	418	455	237	328	348	257	280	216	215	358	326	173	331	470	690	1433	1061
607.371	373	361	305	275	355	238	191	141	158	227	203	199	255	324	515	1441	1060
608.271	325	303	296	269	173	112	204	120	93	91	139	155	268	310	653	1514	1063
609.172	411	527	536	484	346	253	274	320	283	417	293	331	354	387	865	1509	966
610.073	479	407	426	407	238	274	279	259	254	318	125	238	304	367	623	1366	984
610.972	508	465	474	349	314	327	355	268	274	260	334	231	321	540	679	1257	999
611.873	397	406	391	369	283	214	340	278	228	298	224	328	162	325	711	1539	1089
612.773	475	414	385	388	388	223	222	177	188	228	249	243	271	412	717	1410	1113
613.673	471	375	361	295	368	225	206	207	158	308	309	211	182	354	633	1352	987
614.572	383	389	376	322	346	337	203	177	270	170	259	210	259	347	633	1406	1005
615.472	408	435	259	348	238	315	239	193	189	264	220	217	223	379	626	1387	928
616.371	300	359	409	416	314	317	255	193	208	240	300	104	315	336	690	1383	978
617.27	547	461	382	336	283	321	326	308	302	345	199	274	261	444	715	1391	962
618.169	384	399	288	302	388	260	138	283	111	362	182	221	384	313	544	1202	868
619.068	342	611	379	322	206	227	253	370	209	321	290	202	302	314	699	1403	1050
619.967	485	443	428	364	322	305	178	158	276	349	314	274	332	404	608	1193	940
620.866	377	372	413	263	206	217	217	203	298	137	282	215	149	262	659	1360	1070
621.764	383	438	441	228	213	202	128	241	199	288	210	170	282	333	635	1334	959
622.662	437	460	422	453	347	271	247	246	228	288	287	242	302	357	666	1334	1052
623.56	463	589	472	368	288	354	366	246	334	318	372	263	291	464	648	1342	999
624.458	465	424	302	379	309	292	270	284	285	206	244	276	325	388	634	1287	1007
625.356	501	450	470	380	431	340	297	262	264	309	331	252	272	357	648	1302	930
626.254	408	399	306	415	301	338	356	312	285	279	267	294	237	368	550	1278	923
627.151	322	380	243	279	308	210	203	106	125	179	163	174	148	309	617	1356	969
628.049	473	378	296	412	312	362	249	301	254	288	155	254	299	370	611	1466	1090
628.946	572	423	425	414	383	314	342	332	277	342	367	291	433	450	749	1421	1138
629.843	513	422	376	379	280	310	305	308	226	343	264	294	236	385	689	1410	990
630.74	519	475	462	464	290	285	393	313	287	411	342	365	371	483	709	1494	1195
631.637	536	472	428	459	395	327	367	209	368	374	334	228	335	399	775	1445	1037
632.533	267	422	291	246	133	207	73	150	98	68	149	96	215	288	516	1414	1117
633.43	465	376	313	250	159	170	245	229	180	249	190	206	263	252	611	1164	959
634.326	436	489	330	364	353	335	330	217	292	278	330	217	217	409	738	1407	1183
635.222	412	335	357	211	290	270	231	222	214	150	206	285	254	343	737	1239	994
636.119	417	493	419	457	312	326	330	302	306	379	390	248	312	319	697	1390	1023
637.015	434	490	299	363	327	275	247	299	216	235	224	177	366	215	601	1230	900
637.91	388	466	326	297	370	253	275	197	223	233	305	203	309	376	649	1343	915
638.806	599	569	458	382	367	425	425	367	306	481	306	398	459	470	863	1325	904
639.701	358	334	327	275	298	241	248	172	304	250	170	95	203	272	534	1562	1044
640.596	355	327	255	314	223	118	221	90	148	143	133	190	177	255	609	1206	848
641.492	349	448	433	312	299	235	283	217	282	231	237	205	98	319	664	1317	890
642.387	466	575	467	413	315	298	228	222	225	331	221	295	383	460	694	1412	1029
643.282	542	568	495	379	263	364	482	302	285	361	311	259	266	375	652	1404	1066
