Raman_shift(cm-1)	5.15K	10.00K	20.00K	40.00K	60.00K	80.00K	100.00K	125.00K	150.00K	175.00K	200.00K	225.00K	250.00K	275.00K	295.00K
-702.213	238	34	193	85	38	108	65	344	369	205	470	360	60	57	90
-701.087	206	174	103	263	372	128	476	509	151	188	139	31	187	15	-66
-699.961	-76	114	205	164	87	156	95	337	269	308	263	263	88	75	-211
-698.835	192	350	148	4	327	296	328	477	423	277	305	305	192	274	-21
-697.71	29	294	74	56	200	81	220	350	186	342	218	218	242	142	-13
-696.585	181	143	313	163	292	194	191	360	407	232	118	99	24	239	296
-695.46	-8	5	67	168	135	172	36	463	440	445	263	250	129	84	152
-694.335	-84	10	185	234	318	235	92	33	181	160	305	246	106	64	10
-693.21	180	171	-10	94	226	364	136	302	424	362	218	104	151	210	58
-692.086	195	86	197	117	39	206	321	298	411	297	487	213	86	17	-90
-690.962	261	79	189	267	44	282	52	406	269	436	52	253	253	253	61
-689.838	74	270	-16	16	12	92	170	437	279	296	253	58	298	298	-48
-688.714	171	289	364	365	217	100	40	384	203	298	325	66	66	66	41
-687.59	140	256	480	282	271	200	262	525	274	240	260	154	154	154	77
-686.467	-91	-79	-19	99	236	100	154	340	141	285	73	3	260	260	169
-685.343	360	326	395	358	170	232	197	166	394	403	355	183	183	183	46
-684.221	217	283	233	174	238	235	61	446	225	203	118	118	118	131	-15
-683.098	119	-62	194	192	186	364	308	525	291	367	263	263	178	96	63
-681.975	129	167	172	281	167	206	155	303	499	343	305	305	135	40	171
-680.853	5	-15	58	64	257	282	325	268	346	213	195	103	103	-92	73
-679.731	194	142	109	148	331	92	368	366	193	240	303	249	136	30	-4
-678.609	200	333	133	156	298	100	123	392	420	360	204	204	56	84	156
-677.487	223	124	176	226	220	200	78	427	492	445	390	88	91	158	-3
-676.365	243	139	83	-21	133	209	209	314	421	443	239	97	166	87	134
-675.244	181	140	397	355	236	185	42	251	340	388	149	129	137	-99	10
-674.122	91	38	226	239	170	443	226	279	547	296	212	209	-39	47	58
-673.001	154	153	219	196	178	230	100	196	513	555	362	239	411	118	272
-671.881	22	118	337	224	39	209	325	523	161	197	186	80	-17	-47	-126
-670.76	148	111	226	63	44	185	267	343	658	300	226	106	241	63	66
-669.639	80	164	186	132	12	230	347	319	406	328	167	149	34	203	67
-668.519	407	322	226	170	217	209	191	499	182	233	150	3	63	232	76
-667.399	218	85	123	95	271	185	287	428	246	308	203	-20	145	288	-32
-666.28	227	186	111	152	236	173	214	245	420	372	296	236	290	172	-103
-665.16	207	335	328	131	170	258	21	66	425	291	151	-25	238	140	82
-664.04	174	271	99	165	238	108	237	370	424	347	293	194	108	155	178
-662.921	294	299	343	203	186	217	28	143	434	445	443	305	192	104	128
-661.802	228	270	179	146	167	170	252	176	222	477	37	35	58	64	15
-660.683	76	262	191	84	257	321	194	382	409	381	378	258	40	184	263
-659.565	199	125	44	61	331	312	208	53	209	259	394	237	-61	103	92
-658.446	190	187	100	-13	298	139	130	162	298	350	309	180	122	241	-108
-657.328	135	167	159	77	220	210	202	289	491	398	381	170	209	179	27
-656.21	146	178	171	190	133	237	129	181	326	326	341	237	196	165	-63
-655.092	140	186	165	26	158	148	232	271	276	376	268	320	228	259	-111
-653.974	205	129	-52	45	273	174	303	324	480	503	253	172	152	265	36
-652.857	178	144	174	-17	298	261	373	418	185	200	309	115	129	143	50
-651.74	172	74	203	248	173	316	260	357	484	352	235	50	198	64	80
-650.623	-111	31	71	33	131	111	190	270	321	481	180	91	228	66	-18
-649.506	171	279	66	120	214	253	157	402	350	403	438	275	133	128	44
-648.389	365	259	30	90	-94	72	377	425	314	273	271	66	124	112	148
-647.273	219	163	152	212	130	77	91	215	505	488	176	165	241	155	13
-646.156	156	219	91	7	175	232	326	371	246	320	323	151	179	157	128
-645.04	90	210	144	278	-25	159	350	479	394	449	264	98	58	-69	-134
-643.924	146	149	153	149	161	288	183	343	482	267	162	165	237	388	133
-642.809	66	61	140	116	117	165	366	380	450	392	252	195	177	79	37
-641.693	178	118	191	210	81	103	425	366	363	315	151	190	169	219	-35
-640.578	302	182	60	207	184	107	236	498	364	360	288	232	168	94	141
-639.463	287	221	341	149	71	200	232	271	310	192	208	109	74	49	6
-638.348	154	101	143	187	89	299	258	468	462	576	449	288	73	252	127
-637.233	296	271	229	183	205	218	227	186	416	345	234	143	260	107	24
-636.119	144	106	294	159	59	152	340	312	441	368	461	340	191	106	88
-635.004	116	257	215	187	167	176	179	493	516	444	323	207	61	14	-67
-633.89	253	3	116	172	210	251	220	276	365	235	289	255	130	147	180
-632.776	136	196	299	155	222	218	502	566	187	261	254	331	232	219	198
-631.663	124	141	125	132	223	232	204	307	379	324	381	309	224	113	21
-630.549	200	224	179	168	128	215	218	256	498	415	273	329	134	244	-21
-629.436	101	218	249	166	153	128	33	330	400	436	302	237	42	24	102
-628.323	228	192	98	73	177	222	268	520	507	327	365	155	-54	19	-175
-627.209	258	226	156	98	80	228	234	388	360	330	140	279	73	103	39
-626.097	116	324	142	-69	127	366	129	287	400	418	305	184	113	55	101
-624.984	245	283	236	208	272	297	262	360	507	285	365	146	242	186	82
-623.872	209	31	145	47	69	18	234	155	408	345	141	155	230	77	121
-622.76	266	296	3	78	153	223	346	504	542	378	320	170	86	94	43
-621.648	210	244	133	107	63	223	288	442	429	382	236	174	80	180	-24
-620.536	239	86	92	170	65	292	181	231	455	167	510	195	-1	68	145
-619.424	89	114	121	263	236	111	210	432	525	394	207	254	140	67	355
-618.313	257	280	383	321	196	311	201	287	449	374	325	181	56	11	56
-617.202	249	259	137	164	270	366	308	317	406	394	296	106	127	93	11
-616.091	230	199	247	276	173	281	334	388	437	349	262	206	207	235	-6
-614.98	317	241	147	92	140	141	222	395	382	382	369	168	72	53	-25
-613.87	128	101	236	151	304	328	265	476	461	394	400	266	215	32	109
-612.759	193	204	208	234	339	297	262	329	266	319	217	247	254	34	-29
-611.649	179	141	129	165	101	98	346	342	508	387	199	93	198	116	52
-610.539	134	196	120	21	151	212	166	380	431	343	305	241	193	224	-80
-609.429	161	180	236	115	235	279	192	296	403	378	263	219	281	85	-22
-608.32	155	175	286	201	188	259	249	394	456	490	281	194	188	208	83
-607.21	283	170	-51	6	139	73	346	239	381	424	158	151	172	83	-130
-606.101	217	322	106	191	230	159	189	372	336	279	238	138	171	-3	26
-604.992	256	101	290	221	146	93	36	249	292	313	224	172	50	53	28
-603.883	169	296	305	122	-25	227	289	460	250	214	123	102	165	129	25
-602.775	14	84	370	323	245	304	146	265	550	464	170	140	60	122	19
-601.666	162	76	266	160	112	227	239	413	301	385	309	251	-28	114	-17
-600.558	89	140	211	201	212	215	268	259	475	264	189	137	110	99	3
-599.45	225	188	174	183	135	255	220	172	192	230	280	-9	99	89	118
-598.342	228	209	200	250	101	132	339	389	334	209	333	239	144	76	-24
-597.235	121	196	288	363	165	397	264	445	493	489	156	75	313	315	60
-596.127	245	166	302	212	174	206	94	219	446	554	388	157	282	97	62
-595.02	251	321	185	32	196	260	408	345	388	332	397	264	-48	8	28
-593.913	155	175	298	193	301	72	221	370	288	208	257	213	140	104	34
-592.806	268	282	228	195	51	184	230	196	332	359	257	106	195	177	7
-591.699	415	276	193	115	42	138	295	389	252	267	242	258	28	3	274
-590.593	216	289	193	102	255	147	283	420	363	436	197	131	229	293	7
-589.487	79	80	160	177	150	301	153	359	404	146	355	253	-38	113	101
-588.381	322	255	177	166	368	353	142	368	386	425	300	174	64	199	117
-587.275	227	191	286	241	168	271	304	320	447	369	129	145	141	169	-5
-586.169	78	182	220	214	209	245	241	371	380	348	316	82	220	176	107
-585.064	12	122	6	151	251	320	127	336	425	289	360	223	104	59	114
-583.958	156	-17	203	55	164	162	251	396	371	381	222	46	235	232	109
-582.853	193	226	303	313	75	23	176	324	257	372	298	50	66	114	8
-581.748	169	161	187	144	155	136	293	367	444	484	272	78	153	219	86
-580.643	170	29	311	122	247	71	116	185	378	310	231	11	147	111	71
-579.539	292	105	146	204	140	303	265	391	404	475	307	329	297	177	17
-578.434	126	8	-14	210	282	201	176	436	470	394	245	130	167	159	-11
-577.33	143	144	264	125	225	210	151	385	396	232	255	191	49	161	64
-576.226	190	107	121	165	324	415	164	405	369	419	190	38	55	4	5
-575.123	216	292	186	94	202	260	300	416	366	394	291	128	174	149	104
-574.019	201	280	265	232	206	216	181	359	322	396	239	78	186	31	162
-572.916	228	244	240	167	196	297	317	493	486	361	188	180	225	238	69
-571.813	125	48	311	132	157	268	181	261	389	377	213	134	209	156	64
-570.71	163	174	142	147	267	179	143	251	461	382	145	115	80	29	89
-569.607	146	209	186	267	-4	56	109	295	407	382	337	231	62	9	237
-568.505	161	201	252	187	290	245	324	386	328	246	282	23	306	237	171
-567.402	238	302	382	176	152	123	97	288	280	270	285	267	24	51	-16
-566.3	282	296	92	96	251	212	210	284	383	324	302	147	255	234	24
-565.198	94	115	295	239	62	254	279	469	425	391	292	132	121	183	91
-564.096	317	166	249	276	139	245	240	307	415	362	274	237	241	88	68
-562.994	140	298	113	48	181	187	314	434	532	466	192	59	172	212	52
-561.893	186	284	214	136	137	260	171	259	294	313	159	146	145	152	14
-560.792	112	86	274	303	22	312	262	398	363	424	236	155	57	123	132
-559.691	237	138	196	224	267	212	352	381	520	333	299	174	241	291	-5
-558.59	117	242	251	107	241	234	281	451	338	371	285	70	189	189	-49
-557.489	200	137	400	266	118	282	237	462	356	378	159	115	188	106	49
-556.389	121	171	111	-52	127	111	306	409	364	263	246	9	185	40	115
-555.289	159	156	188	286	130	239	183	293	191	375	261	116	156	220	48
-554.189	158	119	183	88	143	239	215	348	406	403	354	262	120	173	171
-553.089	-16	131	364	196	173	292	369	410	340	516	283	127	198	131	7
-551.989	267	185	188	67	225	276	261	196	343	284	245	101	18	85	87
-550.89	252	246	193	177	164	290	169	359	259	303	327	141	85	27	48
-549.79	93	111	93	91	51	131	171	203	351	298	218	132	79	69	100
-548.691	314	253	265	189	197	222	163	267	562	372	401	189	260	247	32
-547.593	305	294	187	116	182	326	134	239	296	371	134	248	63	37	75
-546.494	141	247	161	80	87	208	188	186	349	269	226	130	117	94	182
-545.395	196	173	217	184	345	267	147	270	378	349	365	277	166	230	146
-544.297	81	215	200	170	183	343	236	421	269	206	299	217	-33	18	-26
-543.199	155	139	150	284	147	165	458	597	455	445	276	210	118	13	27
-542.101	124	198	213	290	287	293	149	182	283	369	288	117	170	86	-3
-541.003	166	218	72	171	202	209	389	458	331	268	130	89	93	1	78
-539.905	129	150	152	5	22	205	272	350	312	299	198	36	166	181	45
-538.808	229	224	268	264	248	285	236	391	553	544	323	264	168	125	118
-537.711	119	85	165	48	107	123	127	198	578	469	356	144	98	55	-27
-536.614	200	226	100	-1	254	340	304	341	368	458	296	241	173	175	132
-535.517	149	213	258	229	389	376	269	252	410	463	305	234	188	-26	79
-534.421	262	107	186	74	165	289	168	405	386	369	269	186	-3	145	123
-533.324	375	221	191	94	253	262	184	494	337	275	260	243	150	253	-5
-532.228	221	154	196	165	57	224	277	478	392	274	294	152	29	38	-98
-531.132	173	92	234	126	263	282	188	205	299	337	114	29	101	104	-39
-530.036	207	134	214	242	272	416	322	470	448	222	323	242	235	242	175
-528.941	260	215	161	238	260	302	245	377	406	362	193	73	87	70	171
-527.845	251	272	211	91	44	105	273	307	467	508	245	205	164	87	36
-526.75	185	140	285	204	123	302	311	378	381	340	263	111	142	82	43
-525.655	269	224	148	185	143	143	278	357	373	300	429	339	30	30	151
-524.56	249	318	236	149	5	143	280	460	338	367	110	184	106	73	23
-523.466	61	157	216	290	297	281	209	321	273	321	315	244	185	190	190
-522.371	303	298	342	228	261	316	210	369	287	242	288	138	123	40	40
-521.277	220	172	48	189	113	108	231	297	459	420	187	93	99	69	33
-520.183	347	399	104	133	190	262	202	322	436	379	362	294	111	198	-13
-519.089	262	183	79	270	272	258	208	284	483	517	356	282	85	99	16
-517.995	270	205	211	107	89	277	188	422	312	431	263	162	142	189	43
-516.902	157	183	139	114	183	74	234	336	353	388	381	324	268	150	52
-515.808	155	93	36	32	205	279	285	260	326	337	110	19	203	129	57
-514.715	185	219	232	139	203	349	184	379	369	346	370	198	139	221	-58
-513.622	239	199	302	271	274	272	229	392	377	282	315	214	243	208	117
-512.53	185	106	104	208	128	204	106	171	384	385	179	189	226	307	79
-511.437	350	261	236	168	187	201	226	363	403	330	285	252	197	119	43
-510.345	220	146	219	120	274	322	171	247	423	369	322	358	51	187	20
-509.252	242	105	245	279	179	263	246	346	480	348	288	49	146	75	163
-508.161	246	294	157	116	311	285	83	196	290	332	305	259	155	25	25
-507.069	220	186	51	131	196	242	186	374	344	245	336	131	55	-3	-3
-505.977	220	262	221	176	160	186	368	407	403	415	273	242	186	193	193
-504.886	94	201	258	171	323	327	199	355	547	403	258	199	284	194	194
-503.795	323	237	163	310	41	108	142	169	357	392	276	198	183	77	77
-502.704	232	274	318	278	453	357	275	436	498	507	202	165	211	169	169
-501.613	195	166	212	149	232	298	374	509	432	364	322	191	61	45	45
-500.522	313	308	142	119	195	236	65	249	313	370	233	123	236	166	-15
-499.432	214	163	129	247	175	226	159	196	428	311	369	283	157	133	157
-498.342	160	243	149	160	101	292	172	375	393	288	187	70	104	152	-29
-497.252	303	300	152	175	269	223	175	256	217	235	382	288	254	274	200
-496.162	212	160	243	90	108	64	231	279	318	291	341	143	82	59	41
-495.072	179	222	194	199	190	290	272	276	329	370	469	253	166	186	53
-493.982	363	303	225	140	285	250	348	469	277	269	218	127	116	162	176
-492.893	160	182	104	224	190	281	211	399	395	324	263	163	159	152	152
-491.804	336	280	172	197	193	154	279	379	339	354	315	204	15	130	25
-490.716	243	136	211	129	202	172	270	449	460	428	314	202	-11	16	-91
-489.627	348	236	209	237	193	166	294	388	415	284	180	133	126	81	-38
-488.538	86	173	252	117	260	339	207	221	357	362	302	282	67	123	-20
-487.45	153	239	202	307	217	261	227	305	258	256	239	250	199	100	150
-486.362	221	209	273	348	137	226	148	312	365	355	284	191	188	147	-48
-485.274	173	212	321	176	222	216	34	359	412	398	298	189	215	108	138
-484.186	274	231	267	212	246	310	338	357	487	421	286	181	118	93	-143
-483.098	256	242	243	212	187	151	273	402	565	411	311	242	140	156	128
-482.011	237	217	189	175	205	315	174	283	510	418	201	69	40	57	107
-480.924	194	228	220	173	161	266	117	422	361	351	461	205	162	125	37
-479.837	212	250	288	284	131	247	153	269	402	384	293	201	136	163	2
-478.75	161	222	89	-14	285	284	177	315	377	410	225	122	214	123	126
-477.663	391	280	185	216	136	119	179	436	409	324	445	226	240	99	75
-476.577	92	111	264	115	417	352	297	435	488	400	228	340	155	195	47
-475.491	163	109	289	228	247	222	273	258	472	393	271	224	166	193	55
-474.405	192	113	62	151	322	340	28	280	397	426	244	159	48	44	146
-473.319	241	148	241	174	179	341	285	429	299	396	283	140	209	111	41
-472.233	175	176	249	274	87	178	270	209	403	290	295	78	117	63	11
-471.148	119	153	108	192	247	153	218	322	428	428	173	255	236	157	152
-470.062	137	173	193	71	219	192	280	494	384	303	425	107	288	118	175
-468.977	189	116	106	86	192	129	236	445	438	428	268	107	-37	-51	-2
-467.893	242	230	180	216	156	100	323	438	303	315	292	273	329	142	-76
-466.808	154	197	217	281	224	268	165	264	413	313	307	150	13	-1	36
-465.723	240	209	78	99	98	181	278	385	502	389	345	117	116	193	89
-464.639	316	317	232	214	218	198	298	372	430	311	170	85	158	218	40
-463.555	317	298	198	219	321	328	155	206	348	378	152	140	158	205	169
-462.471	176	170	283	192	32	180	304	382	373	345	285	214	148	73	-44
-461.387	200	235	76	136	157	186	176	427	383	364	353	214	155	175	-100
-460.304	151	155	271	118	239	309	279	372	414	414	302	222	148	170	99
-459.22	158	258	212	121	97	222	182	423	424	299	216	209	152	149	134
-458.137	187	276	118	202	169	107	340	436	405	352	377	86	124	170	22
-457.054	221	268	244	166	163	183	327	285	427	398	175	158	147	112	-18
-455.971	114	210	200	135	351	268	175	199	379	314	372	199	137	57	100
-454.889	141	106	209	149	272	189	171	283	375	476	320	272	216	59	26
-453.806	305	277	61	87	208	343	236	367	546	504	265	138	172	164	109
-452.724	267	236	201	140	197	261	278	293	441	475	332	157	182	184	-46
-451.642	223	217	162	137	115	354	195	389	290	339	344	233	159	89	-55
-450.56	213	218	196	173	104	161	263	391	378	459	294	149	220	237	-85
-449.479	165	178	220	249	236	156	146	200	399	376	232	202	217	220	115
-448.397	185	121	140	166	182	238	300	300	434	268	332	193	133	104	123
-447.316	214	245	63	114	209	172	275	330	307	317	177	228	168	93	136
-446.235	299	294	164	51	313	265	284	375	317	308	265	132	46	11	34
-445.154	219	46	246	286	155	324	117	402	388	475	227	150	151	262	74
-444.073	81	205	330	259	199	325	219	297	490	410	274	191	171	79	16
-442.992	297	236	227	159	227	139	112	270	314	305	144	53	83	102	107
-441.912	181	195	115	80	133	228	229	368	375	424	243	222	138	49	17
-440.832	202	120	241	186	101	275	203	341	434	415	273	192	263	110	39
-439.752	273	265	282	213	124	113	295	279	349	183	358	295	132	140	14
-438.672	215	238	195	180	38	250	240	387	400	359	240	165	117	196	84
-437.593	326	99	354	361	265	151	274	356	327	385	316	121	177	110	79
-436.513	255	118	150	100	155	246	191	87	395	422	255	160	64	31	40
-435.434	195	162	103	57	194	206	280	442	353	292	258	166	132	58	81
-434.355	204	206	208	118	30	117	266	295	424	335	201	235	201	237	151
-433.276	236	219	279	288	342	288	279	389	323	388	271	93	215	223	199
-432.197	291	272	267	83	139	321	310	406	358	268	310	176	194	109	43
-431.119	131	181	91	171	149	408	233	348	470	375	223	202	85	94	86
-430.041	254	216	275	273	174	271	199	359	476	302	329	259	-12	54	120
-428.963	163	183	190	165	87	247	313	310	348	445	305	115	189	199	123
-427.885	174	202	311	318	266	332	141	477	404	397	270	72	174	132	93
-426.807	220	165	209	125	160	302	248	370	427	302	283	268	28	54	93
-425.73	204	77	291	191	277	350	290	364	384	458	131	106	146	229	0
-424.653	199	73	242	196	97	248	169	331	356	452	223	36	53	165	-74
-423.575	236	224	280	198	217	255	331	357	287	371	315	134	134	155	33
-422.498	219	65	70	38	255	260	206	420	336	477	100	-41	158	7	106
-421.422	139	243	100	166	203	227	127	266	344	494	422	219	42	73	40
-420.345	160	148	183	100	3	124	179	376	456	416	319	236	244	116	155
-419.269	307	255	52	157	290	241	233	320	384	511	103	98	169	123	85
-418.192	349	311	243	190	177	230	185	424	409	431	266	267	199	44	107
-417.117	184	149	103	220	252	200	290	409	427	451	347	218	154	257	51
-416.041	251	277	202	182	205	192	337	450	348	318	287	186	149	155	85
-414.965	184	128	180	248	187	217	289	265	516	435	256	167	120	107	132
-413.89	230	194	167	47	219	184	213	243	418	359	242	144	125	151	21
-412.814	268	237	177	283	135	192	198	234	359	462	287	123	305	165	70
-411.74	161	166	249	135	215	217	134	368	300	283	338	211	-89	8	154
-410.664	130	133	106	128	218	230	139	302	405	330	240	251	136	264	184
-409.59	173	223	182	117	42	99	251	390	284	324	176	62	326	263	8
-408.515	193	120	196	94	323	245	145	349	272	213	265	119	61	71	115
-407.441	229	317	264	196	159	200	363	498	564	513	238	74	83	104	46
-406.367	232	176	182	52	118	225	254	401	293	373	283	185	201	82	33
-405.293	169	97	285	252	284	278	232	410	382	449	356	246	146	52	43
-404.219	208	205	130	38	219	284	316	523	537	378	233	105	264	276	132
-403.146	209	201	166	142	200	180	288	356	348	367	271	120	205	122	95
-402.072	167	160	193	161	277	353	177	373	354	285	347	133	239	69	126
-400.999	181	269	245	240	125	151	166	417	428	329	306	166	204	118	-15
-399.926	255	182	114	51	160	139	316	432	394	379	331	161	41	81	105
-398.853	178	102	179	121	118	195	181	281	469	375	274	96	179	77	216
-397.781	313	274	160	74	180	157	127	249	409	459	201	193	253	154	173
-396.708	227	165	265	162	185	195	313	454	416	371	397	259	88	164	98
-395.636	183	71	273	208	226	235	189	330	446	435	195	207	169	31	110
-394.564	256	222	151	164	324	267	133	279	358	287	294	124	61	100	23
-393.492	254	233	159	152	74	295	205	290	312	374	288	263	185	252	109
-392.42	120	23	298	238	189	257	280	534	399	349	262	200	79	84	-14
-391.349	211	200	147	97	103	212	345	407	333	291	258	228	149	21	87
-390.277	158	190	119	142	243	339	340	410	367	291	157	136	128	89	118
-389.207	221	142	146	142	263	339	247	405	467	444	301	72	101	136	-23
-388.135	245	141	207	265	231	369	114	273	398	368	226	123	225	142	213
-387.065	144	152	145	146	264	187	354	414	498	473	191	48	91	86	58
-385.994	60	193	239	116	191	244	261	338	568	391	199	187	268	208	57
-384.924	230	188	139	157	207	214	184	356	317	391	302	13	77	172	26
-383.854	277	249	197	103	185	211	215	296	343	334	229	70	190	190	117
-382.784	123	66	188	285	109	249	172	284	276	284	173	27	100	136	15
-381.714	357	207	175	171	212	198	119	372	306	370	309	157	147	140	2
-380.644	407	310	224	188	211	287	200	321	362	406	214	265	66	129	87
-379.575	261	171	125	135	138	112	203	418	368	386	310	218	189	189	65
-378.506	233	146	200	107	230	200	267	280	552	378	299	245	126	96	136
-377.437	224	213	145	131	267	244	296	338	399	405	257	235	139	33	162
-376.367	350	260	210	209	165	83	154	263	409	503	169	229	156	160	-25
-375.299	115	183	283	244	210	247	374	335	253	286	309	253	189	97	-11
-374.23	216	195	155	168	144	305	235	387	392	368	270	89	29	192	190
-373.162	140	120	176	174	248	336	217	474	384	320	195	199	198	175	78
-372.094	179	192	13	8	178	160	76	295	354	306	247	173	251	94	-48
-371.026	249	358	284	301	121	298	134	341	426	401	393	155	147	234	53
-369.958	207	145	90	61	217	315	339	498	396	225	356	193	197	147	77
-368.891	296	165	142	90	129	313	221	350	254	172	350	157	129	217	114
-367.823	162	87	302	264	381	337	322	417	417	485	238	24	143	70	-13
-366.756	232	289	281	172	259	311	152	335	421	447	89	41	56	32	5
-365.689	330	178	151	165	220	249	301	364	310	323	142	138	218	142	39
-364.622	287	352	147	287	163	204	103	215	452	444	288	185	185	147	20
-363.556	124	220	209	118	247	244	268	369	464	393	181	79	79	62	-40
-362.489	143	211	211	98	248	219	142	373	389	376	255	206	206	184	56
-361.423	78	142	193	89	151	157	267	324	530	494	260	183	183	68	0
-360.357	271	105	140	73	104	192	294	381	348	352	233	124	277	88	-101
-359.291	169	297	192	162	209	177	168	301	324	362	368	150	155	132	76
-358.225	171	178	176	121	234	261	243	389	491	406	288	139	73	-23	78
-357.16	216	233	252	124	176	150	256	308	301	230	283	198	220	90	138
-356.094	257	155	227	69	215	223	198	318	374	381	306	182	181	218	33
-355.029	67	51	208	169	142	238	152	218	404	408	257	162	109	108	96
-353.964	156	209	141	197	176	192	256	337	342	291	287	266	117	104	169
-352.9	241	197	235	228	110	185	235	417	396	482	288	164	77	97	31
-351.835	123	146	188	192	173	233	259	282	288	166	334	162	228	227	27
-350.77	213	262	173	155	110	247	165	180	279	378	214	214	170	-11	37
-349.706	194	221	135	22	235	172	159	239	327	319	190	75	114	156	-16
-348.642	98	104	146	120	239	213	146	326	350	217	182	70	-32	20	5
-347.578	295	206	197	193	157	342	183	367	351	415	249	174	35	123	67
-346.514	169	151	218	168	114	283	169	256	396	450	273	62	203	106	52
-345.451	147	171	191	166	225	250	230	436	256	286	146	154	131	115	83
-344.388	159	199	212	147	81	147	328	502	319	317	331	226	233	41	128
-343.325	200	232	181	163	264	309	226	312	447	375	354	158	124	105	-94
-342.262	240	62	130	151	246	266	237	303	394	376	184	146	23	120	213
-341.199	32	104	178	140	140	274	223	408	365	273	289	192	108	78	100
-340.137	288	173	225	168	85	212	232	198	393	410	303	152	257	165	132
-339.074	282	199	95	21	104	135	236	381	421	339	333	203	74	183	18
-338.012	121	142	198	89	130	247	325	324	452	388	247	200	69	117	129
-336.95	176	279	168	129	271	261	185	305	402	429	139	264	121	207	-9
-335.888	188	90	224	145	122	164	185	386	315	322	251	131	140	181	53
-334.827	216	271	32	6	208	281	241	323	480	424	377	209	116	84	78
-333.765	106	92	232	200	62	114	255	376	484	441	152	131	208	198	-83
-332.704	201	201	215	319	170	274	201	214	236	357	347	194	45	77	8
-331.643	198	125	123	101	329	282	276	395	348	418	237	109	144	73	-14
-330.582	152	85	46	61	299	226	241	363	417	364	106	138	76	158	101
-329.521	142	130	139	128	199	288	294	283	393	419	311	263	18	-2	132
-328.461	237	296	76	105	158	269	232	424	417	356	305	162	215	144	75
-327.4	218	165	121	69	230	220	167	305	372	393	203	156	150	139	40
-326.34	152	150	214	224	272	254	287	309	396	456	224	142	123	43	43
-325.28	177	255	219	219	193	132	215	288	467	487	315	203	63	6	6
-324.22	170	258	296	156	239	132	390	330	367	272	248	166	65	90	90
-323.161	152	161	304	149	183	181	230	366	414	434	210	221	114	155	155
-322.101	131	102	187	140	286	291	239	398	386	365	153	51	177	46	46
-321.042	259	209	104	178	232	333	326	392	380	389	360	130	143	197	197
-319.983	183	19	306	183	200	238	380	341	401	338	259	175	197	307	307
-318.924	316	262	290	220	297	251	139	222	380	206	220	159	58	129	129
-317.865	220	245	216	145	114	326	254	421	372	359	220	86	84	128	128
-316.807	192	274	331	263	97	157	123	325	279	362	344	119	128	319	319
-315.749	325	283	165	62	153	215	74	210	273	257	192	128	56	-33	-33
-314.691	188	194	241	234	185	214	312	325	443	296	187	253	37	-11	25
-313.633	127	138	80	79	-13	127	328	378	394	446	434	337	80	74	66
-312.575	189	184	177	121	274	218	288	469	345	228	178	121	155	158	42
-311.517	57	112	164	171	168	207	325	471	363	370	258	149	224	107	175
-310.46	267	311	302	252	262	229	249	364	271	258	238	127	210	224	3
-309.403	133	164	165	289	171	249	278	412	276	351	379	154	14	95	-8
-308.346	347	383	111	252	130	107	280	336	392	386	232	167	96	89	132
-307.289	228	180	64	31	170	238	210	228	462	281	266	150	73	76	-5
-306.232	93	174	236	116	157	186	132	151	392	395	190	179	183	177	-99
-305.176	244	255	285	54	152	214	147	246	554	378	274	216	156	137	15
-304.12	173	139	170	175	254	321	357	358	466	323	307	184	239	192	75
-303.064	215	199	215	143	324	267	309	398	457	438	274	138	159	78	-48
-302.008	246	196	148	217	174	239	250	337	386	380	195	155	190	186	-44
-300.952	221	223	129	79	289	310	235	387	365	334	226	182	12	18	17
-299.896	156	172	187	205	186	225	241	400	371	495	226	284	93	46	93
-298.841	293	203	123	148	283	261	278	434	436	357	228	151	221	202	-10
-297.786	58	142	131	262	24	208	306	330	417	370	270	141	219	122	17
-296.731	172	131	189	206	321	468	207	324	379	373	341	256	158	219	117
-295.676	168	192	254	258	87	172	338	308	345	381	263	120	145	134	-37
-294.621	114	119	241	115	92	149	299	411	416	395	217	206	183	50	-45
-293.567	162	245	256	258	154	237	232	282	522	393	262	178	203	250	37
-292.513	161	153	284	221	270	335	155	315	286	320	238	160	126	42	-110
-291.459	210	305	270	151	147	182	176	361	367	374	171	124	251	251	136
-290.405	248	245	242	151	217	126	382	563	376	406	322	174	96	141	79
-289.351	209	115	27	54	164	362	206	369	355	395	243	118	161	86	242
-288.297	191	176	200	169	52	72	270	403	372	300	318	221	229	180	65
-287.244	210	266	181	133	262	226	282	416	338	186	318	234	163	123	151
-286.191	240	256	110	175	78	212	288	368	407	292	324	226	57	53	31
-285.138	12	115	151	249	220	140	271	348	376	476	265	244	75	82	161
-284.085	180	199	222	147	157	233	237	348	427	448	357	70	253	293	83
-283.032	245	207	115	327	222	332	253	252	313	189	194	213	125	232	141
-281.98	232	259	203	254	220	310	232	367	354	369	209	177	44	158	-32
-280.928	244	215	264	191	232	233	364	378	409	362	245	244	150	122	78
-279.876	215	157	133	86	219	175	135	308	473	464	230	172	181	169	127
-278.824	83	179	188	113	145	199	299	437	476	415	264	200	124	225	58
-277.772	282	277	79	199	164	267	280	379	333	336	319	269	32	69	7
-276.721	172	181	260	222	63	112	216	285	335	415	288	292	129	126	-119
-275.669	191	197	212	205	199	238	148	330	328	181	313	184	202	178	-3
-274.618	237	221	203	239	212	245	251	330	387	296	212	102	228	104	24
-273.567	234	249	87	70	125	262	277	316	269	433	363	133	140	100	103
-272.516	191	136	112	171	276	339	270	338	398	284	298	139	127	97	-119
-271.466	151	225	191	268	161	240	176	323	433	387	369	272	87	56	86
-270.415	272	215	235	190	152	205	116	332	360	350	238	232	11	91	237
-269.365	297	185	322	177	213	311	285	350	321	278	234	53	248	90	99
-268.315	221	206	212	219	215	236	83	239	448	310	364	173	215	201	180
-267.265	215	113	199	152	349	358	169	273	433	425	357	177	48	164	114
-266.215	177	241	109	137	239	246	274	440	429	410	217	203	-88	-86	65
-265.166	194	189	203	178	96	205	229	235	358	360	229	139	229	139	101
-264.117	215	157	119	155	175	226	168	334	333	429	341	178	341	178	89
-263.068	244	212	217	178	254	337	166	323	409	286	271	136	271	136	32
-262.019	60	101	191	31	180	245	218	244	339	435	128	133	128	133	-23
-260.97	165	135	235	59	219	309	149	264	360	339	185	159	185	159	58
-259.921	217	203	322	258	339	331	165	405	354	174	265	239	265	239	71
-258.873	143	118	212	119	147	131	241	368	408	455	190	31	60	39	-111
-257.825	233	258	199	250	107	317	257	374	389	421	268	102	123	79	-78
-256.776	99	260	109	208	353	324	210	397	389	452	205	172	83	144	6
-255.729	146	187	203	128	293	212	161	201	350	401	177	195	337	207	35
-254.681	267	188	119	139	227	207	145	396	305	283	243	120	262	230	159
-253.633	211	224	217	266	235	300	95	184	438	435	242	48	167	104	68
-252.586	145	123	585	94	152	211	345	428	409	395	242	153	150	142	16
-251.539	283	307	243	127	237	315	276	403	361	340	365	257	2	1	25
-250.492	197	266	234	176	194	244	325	307	290	398	357	134	164	106	-70
-249.445	128	156	254	280	186	244	202	380	474	513	326	281	61	60	16
-248.398	236	162	303	192	218	237	169	330	370	220	198	101	158	179	117
-247.352	237	159	181	181	161	173	298	438	327	377	259	133	249	243	134
-246.306	228	143	197	129	203	279	345	391	388	354	460	329	78	162	79
-245.26	210	286	279	275	228	253	161	212	365	327	210	72	64	79	-23
-244.214	260	227	301	209	140	283	206	279	416	374	358	142	57	157	118
-243.168	294	202	263	148	148	266	260	403	360	307	274	131	52	190	66
-242.123	138	244	240	107	325	305	213	270	496	521	172	124	18	71	104
-241.078	222	137	84	50	320	169	290	374	367	310	192	205	98	83	-46
-240.032	222	94	125	65	196	332	331	395	317	382	297	152	155	249	158
-238.987	215	263	74	222	172	367	74	297	349	398	320	239	-15	-22	-87
-237.943	193	137	340	258	264	356	236	292	258	388	195	207	184	159	14
-236.898	196	284	123	213	205	285	317	476	281	312	171	130	12	104	47
-235.854	77	151	119	150	263	336	248	292	488	473	221	161	160	139	20
-234.809	67	2	120	76	217	249	349	441	384	422	185	67	122	133	-47
-233.765	158	226	283	237	248	295	281	404	396	398	382	136	167	133	12
-232.721	131	194	91	33	148	109	260	293	369	367	174	199	120	133	111
-231.678	210	162	209	164	171	206	263	378	410	372	476	292	41	43	61
-230.634	185	294	149	92	243	218	287	226	287	232	287	110	40	7	75
-229.591	314	343	134	12	159	212	237	293	365	320	201	135	169	160	-15
-228.547	150	99	156	144	204	316	144	281	421	373	227	260	176	131	76
-227.504	200	302	88	101	209	280	230	400	413	367	241	159	149	185	63
-226.462	207	192	179	167	206	210	252	344	345	344	299	195	-17	213	22
-225.419	221	160	217	245	242	203	222	354	424	404	264	181	288	195	-93
-224.377	258	231	197	312	90	213	323	344	406	471	163	67	80	122	91
-223.335	118	174	180	60	239	212	239	313	289	264	232	297	158	108	80
-222.293	135	213	246	260	154	234	189	354	327	294	162	31	45	74	43
-221.251	93	98	203	122	242	188	242	256	431	507	159	-7	193	103	-6
-220.209	164	87	214	114	241	176	287	413	276	252	281	176	178	119	-23
-219.168	134	234	159	199	129	163	75	279	433	445	261	222	97	-27	150
-218.126	71	157	265	192	299	470	156	184	336	308	277	211	112	128	79
-217.085	228	115	245	217	131	214	313	305	343	245	282	186	145	34	-53
-216.044	179	169	187	165	191	181	300	549	608	516	313	202	154	178	72
-215.003	59	102	226	85	206	133	219	440	303	184	257	109	135	78	22
-213.962	144	75	202	282	150	234	279	293	401	366	397	203	170	181	-18
-212.922	212	235	181	326	131	290	251	292	450	371	141	227	204	205	46
-211.882	179	194	154	171	302	237	251	345	481	369	119	171	97	185	44
-210.841	328	304	248	256	185	266	210	314	210	264	281	133	266	25	24
-209.802	161	115	216	46	264	320	215	378	268	327	199	143	159	99	78
-208.762	177	257	184	163	60	100	297	437	364	417	296	197	271	190	4
-207.722	214	202	198	224	243	273	107	375	409	429	210	224	180	73	76
-206.683	245	252	187	164	143	202	247	283	429	354	276	168	69	39	34
-205.644	235	179	237	203	158	171	158	185	350	494	241	77	238	79	17
-204.605	306	219	169	164	253	213	387	387	216	292	233	124	211	261	-30
-203.566	269	123	288	211	186	237	260	427	280	337	299	133	118	75	66
-202.528	242	316	192	223	330	387	202	250	427	289	206	135	100	92	99
-201.489	196	223	203	118	95	235	194	262	265	351	267	97	76	137	67
-200.451	173	237	224	185	281	288	187	370	447	361	382	242	240	120	115
-199.412	199	203	199	180	145	277	215	379	496	332	201	136	38	40	38
-198.375	193	247	246	229	247	291	183	440	354	314	279	315	223	121	36
-197.337	136	250	7	-57	222	239	292	401	291	365	232	210	171	143	48
-196.299	98	47	192	119	92	102	214	314	475	403	259	349	141	108	-55
-195.262	132	193	372	243	239	341	267	338	360	242	318	200	96	21	87
-194.225	243	261	206	228	313	290	178	212	420	354	338	116	178	149	8
-193.188	195	143	214	116	286	304	261	377	391	416	316	250	52	135	-10
-192.151	178	199	153	89	188	257	119	258	350	348	277	90	177	72	-32
-191.114	197	258	251	217	149	171	214	359	459	489	192	99	155	151	94
-190.078	218	139	170	201	295	406	183	297	494	384	298	299	137	60	29
-189.041	186	161	215	214	222	305	207	253	333	301	182	205	204	213	65
-188.005	249	174	117	124	177	213	132	285	237	393	286	213	-3	116	32
-186.969	210	184	288	178	272	240	213	305	363	372	427	249	164	118	51
-185.934	276	200	178	129	174	185	297	437	279	303	188	113	132	133	-2
-184.898	210	124	261	222	269	259	178	341	352	320	233	264	94	112	47
-183.863	64	218	238	283	191	128	207	358	279	268	237	192	78	94	-24
-182.827	190	223	208	102	30	117	239	325	406	403	291	184	12	32	19
-181.792	337	439	187	196	168	206	292	427	308	320	303	262	207	137	67
-180.757	270	333	306	315	253	266	147	314	365	335	349	181	82	85	201
-179.723	120	155	245	114	178	140	288	477	404	423	267	332	94	133	7
-178.688	160	236	207	124	196	189	204	257	330	381	263	113	55	114	8
-177.654	224	226	114	99	266	307	261	381	289	456	340	287	186	66	110
-176.62	217	141	171	218	209	264	199	309	371	410	227	273	197	120	45
-175.586	225	203	60	130	145	234	313	361	402	170	267	191	21	67	66
-174.552	309	166	130	165	118	114	201	413	358	278	92	60	193	103	98
-173.518	220	302	266	135	184	218	267	343	290	266	203	287	125	4	-16
-172.485	200	157	273	220	203	251	196	326	477	517	185	130	123	101	87
-171.451	164	202	276	203	114	67	280	387	419	348	147	154	163	168	87
-170.419	86	233	262	191	234	321	182	333	420	477	216	240	82	61	172
-169.386	121	223	92	113	222	258	260	431	388	334	276	174	195	279	30
-168.353	239	214	163	187	191	221	241	254	318	415	373	187	-2	7	136
-167.32	181	135	230	175	256	280	156	361	375	351	275	197	201	173	-131
-166.288	192	192	268	144	198	228	212	270	479	304	265	151	71	-18	-59
-165.256	177	192	197	285	249	233	183	309	387	374	155	95	223	230	88
-164.224	68	30	304	204	243	291	197	342	352	354	224	207	178	238	100
-163.192	171	176	72	92	218	233	330	407	565	288	268	183	118	83	80
-162.16	222	255	209	117	186	227	175	392	377	387	275	166	169	141	8
-161.129	165	321	209	244	231	231	307	408	263	256	357	200	86	142	84
-160.097	211	189	78	111	277	195	185	241	395	405	209	163	183	74	-24
-159.066	208	147	167	120	180	221	290	456	422	352	252	200	167	165	-24
-158.036	192	206	187	129	178	100	332	341	393	446	202	49	242	143	8
-157.005	215	249	214	263	204	156	306	359	415	337	249	110	30	88	93
-155.974	269	223	223	98	268	293	223	439	500	526	377	185	153	146	-26
-154.944	365	179	150	153	113	262	286	437	477	408	214	145	21	17	54
-153.913	160	215	139	121	158	213	349	461	357	276	287	239	6	10	14
-152.883	83	29	243	158	296	414	228	248	416	449	188	145	85	142	23
-151.854	292	185	110	115	154	278	310	427	421	378	292	198	-19	137	127
-150.824	151	260	159	73	174	291	212	413	429	339	186	282	231	219	55
-149.794	218	230	209	113	175	184	133	282	491	445	198	145	73	33	38
-148.765	138	244	183	138	83	245	167	301	344	399	171	62	63	142	29
-147.736	284	175	110	95	231	160	220	436	340	314	270	138	288	114	37
-146.707	105	224	229	128	153	285	376	313	410	415	331	188	130	24	30
-145.678	240	67	207	180	224	245	242	430	444	408	218	103	147	147	33
-144.649	205	113	113	101	69	205	166	286	454	353	243	250	106	42	70
-143.621	216	238	153	63	319	278	189	409	336	386	262	155	180	48	46
-142.593	60	118	203	207	77	133	226	311	361	341	267	97	30	92	-13
-141.564	272	191	189	156	310	308	232	417	383	280	293	212	213	202	82
-140.537	197	207	139	113	168	174	217	342	492	524	300	215	20	91	136
-139.509	163	166	158	155	63	159	309	331	390	464	241	124	151	136	92
-138.481	220	198	108	52	209	217	309	433	419	373	211	199	244	256	170
-137.454	122	114	154	92	71	211	262	370	392	332	287	107	134	51	65
-136.427	338	249	123	187	224	258	231	334	469	365	228	116	80	72	-107
-135.4	240	186	149	201	187	301	155	306	447	428	228	209	184	90	87
-134.373	284	223	14	29	248	322	303	478	318	332	268	51	148	135	24
-133.346	194	163	233	328	111	199	355	485	524	500	394	208	177	148	-16
-132.32	199	269	137	182	239	299	344	375	413	389	333	231	202	139	144
-131.293	265	271	241	219	15	238	335	427	341	441	298	61	40	32	47
-130.267	137	86	168	106	198	270	215	296	391	334	214	165	80	29	91
-129.241	104	188	130	144	159	176	219	358	256	360	280	219	90	41	68
-128.215	75	192	188	146	283	242	152	360	432	330	254	152	171	188	29
-127.19	134	105	162	335	246	280	269	237	389	441	280	177	140	-27	47
-126.164	222	135	174	224	200	312	141	302	381	396	224	111	161	148	30
-125.139	135	242	170	158	164	171	255	395	492	342	287	106	98	54	27
-124.114	224	152	144	171	197	270	210	250	404	384	260	216	130	178	-25
-123.089	265	168	303	259	231	321	249	456	377	381	180	128	107	152	8
-122.064	181	192	116	142	193	168	310	303	357	344	282	102	188	154	76
-121.04	176	146	248	146	213	223	167	392	274	239	379	236	93	213	73
-120.015	271	256	170	152	131	305	213	296	367	379	209	169	119	135	-7
-118.991	226	256	37	165	268	150	137	436	303	271	379	152	115	63	67
-117.967	66	94	221	289	244	235	117	381	353	466	233	109	168	24	76
-116.943	230	231	134	158	241	181	243	302	284	189	329	262	91	120	30
-115.92	217	221	231	185	245	318	200	366	389	328	301	241	166	205	29
-114.896	203	185	13	154	198	206	322	326	392	409	299	246	41	105	-10
-113.873	118	193	215	55	229	180	230	391	614	478	356	150	109	75	-42
-112.85	210	101	206	223	135	265	287	379	342	289	289	213	203	147	95
-111.827	83	197	10	38	151	215	181	322	417	423	227	134	152	81	14
-110.804	226	125	233	197	213	234	329	365	483	450	224	131	192	180	11
-109.781	270	147	79	198	136	151	164	343	422	395	128	190	52	1	65
-108.759	228	137	193	193	163	261	220	286	354	338	330	210	160	177	-47
-107.737	213	73	161	176	265	284	60	261	405	321	293	200	102	-10	119
-106.715	205	162	110	136	228	315	255	462	467	384	251	85	88	28	178
-105.693	333	87	191	169	171	253	78	231	437	405	325	156	97	141	-59
-104.671	154	240	312	233	205	184	297	333	437	451	253	152	119	75	-34
-103.65	271	238	202	89	205	198	265	468	403	390	221	75	229	192	103
-102.628	137	307	110	125	276	367	238	251	376	339	308	252	92	90	46
-101.607	194	237	242	100	161	203	147	243	334	350	325	140	139	64	7
-100.586	163	114	135	109	132	166	200	335	263	324	320	106	185	215	128
-99.565	162	103	154	19	138	271	294	349	454	482	363	253	28	94	100
-98.5444	235	215	169	101	125	188	230	392	336	385	344	252	239	112	22
-97.5239	216	178	163	173	62	250	200	221	247	358	282	124	121	245	67
-96.5035	133	150	243	223	198	307	267	408	507	356	130	204	132	13	-18
-95.4832	276	198	49	78	206	174	239	319	454	374	253	27	76	127	108
-94.4635	244	236	22	68	108	160	286	437	435	407	177	180	103	64	99
-93.4434	292	318	98	105	208	335	265	298	435	423	240	130	110	72	69
-92.4238	247	115	170	109	225	154	308	366	322	358	236	208	89	126	89
-91.4044	274	253	229	116	163	226	210	326	399	456	337	229	217	96	6
-90.385	276	304	109	93	173	309	209	378	570	436	291	190	48	104	20
-89.3662	157	137	137	56	222	179	232	271	351	339	271	131	237	119	-38
-88.347	325	269	114	155	56	262	238	365	484	420	294	277	130	37	176
-87.3284	297	220	239	151	160	241	253	464	368	397	195	149	188	156	-1
-86.3098	244	147	148	116	207	339	225	252	484	484	289	263	188	169	127
-85.2914	116	174	228	130	170	295	261	366	428	354	352	111	179	155	36
-84.2734	226	107	239	237	225	309	278	386	387	396	238	90	79	40	66
-83.2552	75	60	132	107	163	179	257	291	366	298	279	133	158	82	66
-82.2374	190	72	158	183	173	262	250	285	412	385	367	244	35	34	-9
-81.2198	161	135	84	103	222	241	359	324	453	354	294	129	116	87	132
-80.2023	91	87	202	118	56	309	223	264	419	376	131	155	82	31	138
-79.1848	329	143	79	146	160	179	176	397	407	396	305	82	165	105	25
-78.1675	244	207	251	183	269	262	204	290	527	472	230	77	125	118	129
-77.1507	180	196	137	137	156	241	175	377	343	466	334	96	177	162	74
-76.1339	237	321	203	115	158	166	221	434	372	430	285	170	124	154	126
-75.1173	250	228	319	212	125	210	219	265	351	284	233	170	171	167	-122
-74.1008	111	141	162	113	97	114	306	305	424	380	118	125	154	132	49
-73.0844	165	88	303	254	269	185	205	385	404	335	166	54	137	117	69
-72.0685	167	240	148	156	154	240	276	390	380	395	211	87	63	96	53
-71.0523	103	49	165	90	201	202	184	379	441	362	319	74	37	74	84
-70.0366	-9	20	95	135	107	223	212	411	377	346	247	159	122	122	102
-69.021	245	137	166	143	252	324	219	346	369	448	226	240	62	189	97
-68.0058	238	293	190	93	93	176	306	453	456	294	269	161	79	78	32
-66.9905	268	200	192	125	223	370	165	206	311	373	223	138	194	145	66
-65.9755	51	117	183	222	187	264	166	358	424	304	218	228	195	191	30
-64.9604	249	240	295	271	91	248	204	375	397	386	293	219	-5	-5	26
-63.9457	190	253	228	247	230	161	251	395	304	309	151	0	199	163	4
-62.9311	227	305	213	104	234	403	256	383	426	464	245	176	128	19	115
-61.917	121	227	241	263	240	152	112	254	421	346	371	176	106	22	117
-60.9026	169	140	318	229	118	165	213	376	380	394	218	98	124	184	82
-59.8887	152	210	196	151	171	143	310	404	420	429	293	203	173	101	79
-58.8749	173	111	293	333	234	248	171	337	351	375	379	156	84	31	89
-57.8612	81	35	134	102	248	285	275	366	446	375	224	208	181	182	32
-56.8477	128	231	333	229	195	237	247	305	376	271	289	225	90	108	-46
-55.8342	210	288	254	168	191	219	384	449	335	359	272	219	165	163	-14
-54.8212	195	115	317	261	193	251	281	430	332	306	321	198	221	184	-40
-53.8083	194	138	156	171	298	269	250	421	540	365	221	165	30	91	150
-52.7955	167	251	186	184	159	182	286	401	374	414	411	177	110	93	-69
-51.7829	181	103	181	278	290	334	204	352	321	391	263	223	101	82	-35
-50.7703	181	258	291	195	191	277	268	364	401	360	334	216	160	220	24
-49.7582	230	266	277	187	211	205	178	274	445	401	267	125	184	132	-17
-48.7459	92	219	170	139	225	309	286	329	371	445	210	192	101	98	35
-47.734	134	129	192	71	195	260	140	249	362	380	329	292	233	94	15
-46.7222	150	145	131	207	243	222	212	335	435	415	343	137	181	207	84
-45.7109	228	306	101	58	144	101	286	276	380	352	287	227	118	137	37
-44.6994	161	293	268	242	84	201	232	332	468	473	138	87	162	137	76
-43.6883	177	102	262	192	157	270	288	257	392	373	281	226	154	59	-24
-42.677	215	184	152	128	244	269	152	235	221	355	315	184	174	129	-39
-41.6661	263	254	160	99	211	252	261	452	478	567	242	233	84	123	18
-40.6554	170	268	165	154	71	108	133	255	290	321	236	153	123	167	150
-39.6451	20	71	46	95	124	246	186	344	365	292	296	152	98	133	143
-38.6345	213	161	270	255	187	242	151	340	381	343	308	254	82	43	50
-37.6245	217	206	163	155	149	143	273	417	457	350	265	143	200	39	57
-36.6145	200	169	198	182	121	189	158	337	454	357	156	140	194	131	-85
-35.6047	250	158	186	89	118	158	83	217	459	293	404	288	220	215	7
-34.5949	316	124	91	77	45	125	193	419	262	404	250	36	18	69	79
-33.5853	110	188	288	198	187	109	261	502	466	312	366	236	90	216	23
-32.5761	142	82	145	148	157	265	172	265	311	380	170	109	36	43	23
-31.5671	244	259	152	165	217	277	279	374	289	358	348	283	73	-21	48
-30.5581	146	93	212	70	158	254	171	374	557	484	284	216	50	189	119
-29.5493	278	249	67	119	335	271	192	303	396	326	258	202	117	150	57
-28.5405	245	202	130	101	221	358	311	430	347	391	316	276	166	73	144
-27.5323	217	251	115	126	309	358	234	340	337	329	367	148	168	119	62
-26.5237	192	247	242	141	68	281	219	403	413	316	298	178	102	78	89
-25.5157	211	158	51	6	290	380	260	439	480	362	148	87	128	162	119
-24.5077	189	152	223	225	152	297	209	228	436	401	198	113	110	99	5
-23.4999	285	315	239	218	190	234	211	419	423	375	185	141	162	145	-37
-22.4925	118	44	116	190	208	277	352	396	398	446	308	147	180	215	-75
-21.4849	356	239	182	189	360	279	166	443	325	344	174	179	163	142	53
-20.4778	116	223	91	67	184	348	308	405	318	386	321	62	254	234	15
-19.4707	182	194	115	123	233	324	151	228	426	386	310	233	88	152	101
-18.4638	237	220	183	113	131	133	249	265	271	331	374	161	192	101	43
-17.4573	125	165	234	149	104	259	218	349	466	455	253	98	159	65	76
-16.4506	208	151	173	248	174	241	280	359	457	392	214	71	86	36	127
-15.4443	209	183	266	126	210	232	195	193	460	383	205	118	116	107	87
-14.4382	178	137	116	140	152	246	339	486	298	271	160	31	175	215	61
-13.4322	278	265	154	163	217	279	378	388	499	451	313	245	155	131	159
-12.4262	158	231	255	182	225	207	208	319	463	314	317	237	277	164	175
-11.4204	215	162	182	120	287	245	271	387	457	382	246	130	150	158	123
-10.415	159	195	132	98	278	379	293	341	466	334	218	89	179	180	102
-9.40979	55	129	88	89	182	208	253	462	327	387	492	203	112	160	160
-8.40464	257	166	280	243	78	200	262	257	572	364	253	128	51	82	82
-7.3996	310	505	171	58	291	244	289	443	490	339	300	237	143	118	118
-6.39467	203	218	176	163	87	268	362	440	453	322	296	128	178	182	182
-5.38984	191	248	116	275	117	329	214	352	474	438	243	186	385	168	168
-4.38549	149	115	94	381	248	304	228	246	594	538	384	306	110	60	27
-3.38124	273	172	184	236	339	367	318	474	537	433	470	243	79	101	-58
-2.3771	115	207	126	321	365	448	307	296	368	356	325	251	77	7	86
-1.37306	180	344	219	148	213	237	157	237	501	415	443	293	244	132	126
-0.36951	310	88	305	386	402	288	239	468	584	592	227	276	218	179	204
0.63432	384	292	186	295	440	466	420	479	548	394	256	261	99	190	64
1.63767	272	218	309	143	162	147	96	262	551	795	378	440	20	-60	184
2.64092	252	447	286	213	253	397	214	237	330	415	427	349	229	325	149
3.64406	250	299	189	115	310	547	326	333	430	449	158	108	73	39	169
4.6471	350	380	309	448	134	197	183	412	464	400	377	206	99	-14	197
5.64966	170	230	268	322	108	322	254	440	423	430	338	332	184	80	26
6.65249	193	200	137	189	65	234	152	400	383	382	246	-16	198	226	-3
7.65484	249	296	135	124	182	409	231	284	403	411	353	222	116	181	85
8.65709	187	250	102	194	201	244	190	358	349	301	304	130	104	77	28
9.65885	85	163	45	171	178	221	260	380	471	395	224	221	180	133	31
10.6609	77	195	58	126	189	136	222	272	414	368	228	112	191	171	96
11.6624	221	109	229	221	186	194	301	299	394	399	222	175	179	65	-4
12.6643	165	208	190	152	171	192	263	310	344	327	380	138	153	76	41
13.6656	161	107	121	106	68	212	271	351	368	312	184	187	152	243	118
14.6669	182	210	106	123	151	95	186	357	487	472	370	250	165	234	43
15.6677	108	158	190	197	179	221	201	282	401	319	271	197	219	29	178
16.6687	106	74	223	124	263	251	145	360	588	479	290	117	175	238	-18
17.6693	279	268	93	132	148	221	192	273	247	243	356	354	180	114	-56
18.6697	77	118	138	215	235	313	201	359	320	370	363	187	114	155	108
19.6701	203	157	205	121	243	356	326	388	323	374	179	96	74	59	8
20.6703	222	180	237	113	266	307	167	227	535	296	194	49	163	107	-2
21.6705	196	210	173	181	191	223	215	351	493	448	245	189	198	145	59
22.6702	196	247	194	112	277	429	75	302	426	416	282	178	270	211	67
23.6697	62	185	134	112	92	189	276	285	517	443	148	45	104	73	64
24.6692	213	323	191	78	139	190	344	378	387	472	199	190	204	72	87
25.6685	197	238	143	121	333	317	289	390	439	376	349	186	234	149	191
26.6678	150	140	277	201	196	297	125	270	427	445	346	229	127	127	58
27.667	149	145	110	164	195	282	212	349	292	316	285	61	138	93	33
28.6656	71	61	182	81	354	344	344	420	387	358	328	201	17	53	62
29.6642	336	312	252	222	123	163	200	263	598	575	268	151	226	187	42
30.6627	294	223	137	164	152	263	212	458	277	303	208	124	61	31	196
31.6611	201	300	289	293	115	192	148	383	414	442	271	187	189	210	55
32.6589	114	195	169	112	85	146	111	226	408	322	311	167	93	112	57
33.6571	127	200	277	175	242	259	190	225	341	352	304	234	132	77	191
34.6548	219	183	230	174	218	273	336	387	395	405	235	32	243	181	78
35.6524	298	348	285	202	172	240	385	441	318	314	301	134	109	183	107
36.6499	51	112	217	211	59	102	202	272	434	352	361	241	93	101	65
37.6472	287	123	92	202	249	255	175	231	441	437	293	247	145	196	-5
38.6441	250	279	290	189	237	269	287	398	412	474	286	263	99	75	15
39.6413	166	198	124	124	193	332	161	257	369	363	307	195	19	53	40
40.638	198	275	171	103	163	275	240	240	396	416	264	203	141	135	15
41.6346	250	291	165	172	221	275	184	286	301	263	229	149	153	145	122
42.6311	206	339	157	178	263	183	251	310	443	394	254	184	191	92	72
43.6271	133	179	172	124	199	256	236	428	540	427	308	220	240	141	24
44.6234	282	161	219	158	213	346	350	368	361	344	304	243	-11	67	127
45.6192	320	261	85	191	50	293	246	454	393	327	312	216	182	149	-9
46.6149	345	252	162	161	67	204	148	289	443	282	224	170	198	69	33
47.6105	190	171	192	132	233	252	226	478	540	295	282	275	136	132	105
48.6056	233	232	291	223	192	237	200	459	361	321	234	109	144	137	45
49.601	189	110	228	211	346	403	151	446	505	491	322	201	183	101	123
50.5959	26	119	206	106	197	220	287	324	380	335	240	203	130	139	-5
51.5911	195	234	199	137	127	171	241	277	465	429	284	250	170	96	25
52.5854	305	250	193	98	219	245	143	285	376	316	200	205	51	91	91
53.58	325	240	100	132	210	267	276	306	403	343	230	148	46	87	87
54.5746	156	229	237	143	183	236	216	415	451	398	232	126	259	64	77
55.5686	228	322	264	156	204	240	100	257	425	392	210	34	-54	47	66
56.5629	28	140	123	115	266	264	213	199	363	316	283	211	102	82	153
57.5567	198	236	169	159	232	172	151	408	439	452	228	169	4	56	-27
58.5504	115	100	134	213	101	218	212	333	333	400	290	324	257	104	98
59.5437	308	284	186	195	156	226	297	414	430	509	183	146	126	117	194
60.5372	125	144	178	156	155	295	192	348	326	337	251	90	171	148	-62
61.5303	215	124	252	126	188	218	356	503	422	347	286	226	129	155	1
62.5232	70	121	184	180	187	248	359	446	384	430	362	263	144	131	-25
63.516	181	277	221	207	200	233	354	403	338	407	200	166	234	169	106
64.5088	205	219	184	211	114	184	188	264	408	341	251	136	157	115	54
65.5014	244	208	189	206	242	236	168	188	472	453	159	161	66	122	128
66.4936	252	251	153	18	105	222	58	329	289	272	273	93	93	187	104
67.4856	180	214	115	183	296	301	176	406	462	423	259	175	175	14	20
68.4776	194	149	250	96	237	309	256	412	364	387	322	265	211	111	-1
69.4695	329	329	218	167	198	126	291	376	413	429	380	250	125	170	81
70.4612	203	260	292	228	154	303	198	270	361	394	172	192	222	153	150
71.4529	202	187	136	118	237	252	220	311	340	335	322	163	234	92	-53
72.444	203	216	64	58	138	161	246	413	393	299	239	103	121	95	97
73.4351	157	158	198	126	270	253	209	250	431	546	389	253	134	59	113
74.4261	263	248	137	37	313	309	322	354	308	159	246	111	134	73	29
75.417	67	106	184	210	189	144	314	385	281	385	394	154	51	193	-37
76.4074	214	168	237	151	173	215	237	258	347	337	206	136	178	190	67
77.398	219	351	116	163	230	204	187	327	415	399	318	180	2	95	103
78.3882	174	215	300	176	101	317	91	261	454	528	147	-12	280	104	52
79.3783	334	156	224	214	261	259	290	384	410	331	295	193	42	11	-12
80.3683	329	226	176	130	293	226	162	331	425	325	231	109	60	101	-14
81.3582	61	186	177	154	205	214	274	383	462	376	266	133	164	143	34
82.3476	244	181	234	178	272	285	101	114	399	454	234	145	160	154	42
83.3373	163	144	293	166	226	210	230	317	410	354	164	146	128	90	77
84.3265	177	278	130	109	132	136	212	287	373	330	330	138	158	199	-39
85.3156	185	163	217	122	206	215	258	407	375	407	349	164	170	125	52
86.3046	152	212	104	169	302	209	204	360	381	366	254	230	163	68	-43
87.2931	219	183	136	135	52	213	134	345	203	232	73	101	98	129	79
88.282	329	173	261	176	244	203	294	407	448	356	168	100	107	133	-2
89.2703	219	256	97	26	170	243	277	291	361	454	335	184	225	139	96
90.2585	215	200	140	106	148	250	72	301	383	402	309	204	211	136	107
91.2467	295	318	195	92	188	181	284	389	195	279	300	189	124	118	54
92.2347	55	179	178	173	199	246	264	473	405	253	182	152	178	163	113
93.2222	223	238	202	276	263	254	302	379	426	422	224	150	228	67	-4
94.2101	47	58	244	251	140	260	302	382	420	296	154	127	63	-40	86
95.1974	263	228	244	184	150	232	273	258	389	399	352	239	237	191	67
96.1847	312	197	53	187	209	189	191	339	448	335	172	81	109	98	47
97.1718	125	121	219	243	259	331	338	420	494	498	294	164	221	183	118
98.1585	156	153	184	135	255	232	73	290	388	436	313	158	125	120	114
99.1454	203	240	171	228	218	134	189	341	239	206	361	190	49	20	114
100.132	237	246	236	147	196	296	204	384	383	430	213	261	-13	79	105
101.118	210	198	171	213	96	150	215	338	417	331	258	150	153	112	15
102.105	154	146	116	37	185	178	374	386	382	421	175	168	68	50	58
103.091	296	304	227	228	230	200	272	384	388	378	282	219	189	162	75
104.076	215	112	350	207	285	300	211	300	409	472	221	175	216	114	26
105.062	51	174	153	24	265	277	283	303	368	334	232	277	177	154	90
106.048	198	162	259	248	151	228	266	370	456	405	354	124	49	46	59
107.033	228	202	154	161	205	203	383	486	487	382	306	287	84	106	-37
108.018	151	96	252	332	303	418	281	405	387	290	369	234	105	176	32
109.003	295	300	152	103	16	125	317	390	378	385	327	263	137	100	71
109.989	156	194	216	232	126	188	220	326	373	371	216	134	-10	146	62
110.973	148	72	216	224	338	395	185	467	315	472	246	195	132	31	-48
111.958	255	107	243	207	163	212	226	392	437	407	275	221	155	81	3
112.942	174	94	130	133	219	140	251	346	301	345	322	214	162	219	41
113.926	226	142	326	230	165	249	151	263	309	312	333	323	199	147	167
114.91	205	242	96	186	241	309	211	368	320	282	326	191	123	132	-60
115.894	213	286	212	148	232	294	311	391	425	420	339	185	125	70	143
116.878	175	202	83	135	110	192	204	209	323	391	311	182	242	143	17
117.862	314	365	182	244	148	156	216	316	349	183	172	37	102	299	90
118.845	62	217	190	191	272	311	262	291	406	457	230	100	112	91	50
119.828	214	225	188	138	188	244	265	503	395	266	222	171	169	138	119
120.811	136	78	121	20	236	279	131	187	347	257	253	135	131	122	9
121.794	217	245	126	224	201	268	172	326	390	303	334	118	146	144	188
122.777	124	178	183	23	195	208	314	442	323	317	411	191	161	21	-57
123.759	246	137	90	52	154	216	285	361	400	318	282	171	93	14	49
124.741	281	291	226	61	215	233	135	468	427	411	164	48	190	191	29
125.724	253	290	129	110	103	163	261	332	456	358	346	169	70	68	58
126.706	218	297	118	120	230	127	268	267	394	342	215	158	94	95	-61
127.687	161	228	87	112	111	274	185	363	374	450	163	91	114	76	29
128.669	189	133	187	88	302	329	182	210	434	370	149	137	131	235	33
129.651	319	255	228	128	225	238	276	344	485	331	131	124	81	131	-68
130.632	125	260	219	245	33	147	232	391	381	376	202	183	153	213	168
131.613	234	234	130	77	191	301	166	331	408	355	234	122	149	60	69
132.595	127	211	134	171	248	304	332	344	419	333	330	222	26	72	44
133.575	192	134	157	158	249	245	152	175	415	281	259	153	138	166	63
134.556	273	230	130	250	277	246	170	356	377	393	347	178	191	175	6
135.536	236	197	166	171	255	242	298	334	414	376	290	221	149	215	-2
136.517	305	279	249	116	142	279	297	392	436	340	168	148	110	33	120
137.497	132	190	174	350	269	257	291	407	313	311	299	197	165	118	-62
138.477	182	139	207	196	143	226	184	377	512	414	253	145	179	292	26
139.457	180	134	218	128	208	273	252	261	449	449	262	249	84	130	-1
140.437	165	135	222	172	95	128	39	158	480	432	248	139	163	30	24
141.416	382	254	129	77	4	106	357	359	467	443	264	143	151	103	59
142.395	232	236	83	137	136	300	110	301	301	230	309	162	182	46	33
143.375	225	237	214	133	161	223	297	293	353	388	322	206	14	54	48
144.354	163	177	227	146	172	159	291	321	455	327	209	83	13	-6	106
145.333	364	234	199	113	317	378	184	195	396	398	219	8	108	138	48
146.311	262	308	196	81	190	247	39	281	437	349	251	211	222	206	60
147.29	124	102	211	78	112	265	149	272	328	286	259	205	85	15	50
148.268	184	200	161	86	140	137	277	368	339	326	281	147	197	171	29
149.246	160	123	201	239	146	193	186	319	469	345	325	220	106	119	54
150.224	233	150	137	148	332	327	297	330	385	371	243	60	197	225	-64
151.202	245	262	154	96	257	229	291	278	473	399	409	279	159	144	47
152.18	120	109	170	285	254	241	184	341	301	387	342	209	61	93	19
153.157	267	306	257	329	153	195	297	297	400	342	200	27	229	176	123
154.135	205	145	237	179	146	176	291	262	304	289	250	213	103	13	42
155.112	239	181	72	92	245	302	184	314	350	206	327	156	17	46	-91
156.089	181	296	115	192	217	277	194	282	465	407	239	171	95	152	-36
157.066	285	274	161	228	155	202	152	358	420	324	375	128	208	121	-12
158.043	177	220	-39	112	219	334	266	310	393	305	338	141	206	124	103
159.019	221	176	112	142	314	286	216	364	447	362	277	165	292	182	88
159.995	177	197	247	283	89	306	183	386	480	362	308	246	36	77	-26
160.971	269	185	171	273	281	132	342	411	461	413	266	116	160	99	190
161.947	109	164	218	106	169	116	373	470	357	283	215	190	288	271	85
162.923	257	285	148	67	119	113	293	291	472	406	186	201	100	117	17
163.899	302	323	229	165	216	315	133	346	355	353	200	36	81	94	-39
164.875	223	254	211	156	214	306	183	434	435	474	353	223	76	190	23
165.85	159	161	27	125	127	176	314	388	345	406	374	258	199	139	-2
166.825	178	53	177	215	270	269	256	495	568	422	268	98	104	74	184
167.8	237	119	261	268	268	319	169	326	394	334	245	232	213	86	168
168.775	226	258	152	188	167	356	214	357	412	427	417	262	154	106	7
169.75	272	212	201	158	179	124	206	355	373	341	396	107	162	154	45
170.724	243	209	249	231	387	393	299	521	450	533	279	209	92	115	90
171.698	228	158	228	200	195	146	326	496	508	486	372	259	169	233	45
172.673	121	161	180	246	117	191	299	443	381	417	337	399	201	230	152
173.647	205	139	179	140	269	284	225	366	479	399	304	255	220	217	121
174.621	130	160	282	248	276	290	265	402	449	471	267	150	297	236	23
175.595	283	205	180	148	240	317	313	366	447	529	369	345	201	161	265
176.568	262	299	288	161	147	201	298	473	429	432	403	347	244	209	9
177.541	227	265	143	224	203	250	263	410	555	549	454	295	295	235	164
178.514	113	169	254	257	231	305	303	439	544	521	402	339	167	211	63
179.488	386	311	254	271	282	266	191	352	538	411	431	337	223	198	81
180.46	321	228	329	201	198	325	319	463	525	465	431	260	205	162	121
181.433	182	230	183	161	296	376	205	382	577	494	493	288	133	186	103
182.406	313	304	112	236	277	248	365	523	508	481	407	305	222	198	187
183.378	216	306	215	273	351	432	316	549	614	482	479	451	297	313	115
184.35	246	241	350	193	331	370	217	466	485	541	394	391	282	244	180
185.322	236	268	249	327	183	168	359	559	481	550	328	278	343	369	178
186.294	332	261	248	207	155	265	336	438	479	453	472	334	183	112	121
187.266	247	336	243	207	222	252	405	486	524	488	546	393	202	197	86
188.238	220	217	284	305	359	422	311	474	547	560	380	338	346	292	136
189.209	330	312	265	315	303	408	196	491	593	605	460	430	289	225	200
190.18	376	315	164	159	199	343	207	348	684	530	416	331	169	219	136
191.151	191	274	345	269	185	359	325	468	541	556	547	447	269	289	189
192.122	264	245	221	300	430	371	322	524	573	677	566	451	331	346	116
193.093	180	243	336	211	253	205	242	308	609	616	476	433	355	331	206
194.063	165	278	270	218	302	275	411	495	515	655	472	493	321	414	143
195.034	248	197	348	295	218	226	200	520	607	555	481	320	218	223	224
196.004	107	240	263	262	272	381	266	415	522	616	358	373	265	295	58
196.974	492	396	215	213	230	166	357	536	611	524	448	355	390	392	136
197.944	194	259	304	310	262	396	279	429	500	497	457	499	221	180	228
198.914	300	337	341	235	250	299	353	512	600	550	389	420	231	253	181
199.883	268	339	260	305	282	396	260	402	435	512	532	312	232	282	148
200.852	261	179	212	302	118	359	279	422	517	471	474	299	208	411	134
201.822	247	195	305	177	290	228	250	420	609	599	323	294	193	338	210
202.791	214	251	147	156	285	324	405	508	601	574	489	241	337	306	23
203.76	320	273	320	257	378	415	240	359	477	530	567	534	282	245	94
204.729	384	248	421	339	298	272	432	563	613	532	477	435	321	253	95
205.697	262	251	276	193	180	344	178	466	438	544	442	378	219	257	72
206.666	190	251	322	254	304	330	293	458	460	593	455	280	221	378	128
207.634	367	357	195	245	306	288	291	482	561	570	455	418	219	257	195
208.602	228	164	297	236	306	404	383	487	642	562	371	233	376	331	182
209.57	278	237	340	154	229	295	244	515	649	493	416	304	260	171	180
210.538	304	259	249	206	327	328	404	439	552	443	559	322	322	362	102
211.505	310	347	271	253	277	308	421	654	568	554	474	392	388	338	77
212.473	403	298	257	250	271	388	372	400	700	602	390	238	206	260	199
213.44	322	354	317	292	281	337	416	589	588	595	549	447	282	403	72
214.407	205	207	175	256	313	352	308	458	700	652	527	422	242	238	253
215.374	190	244	369	346	294	302	341	496	552	633	521	473	306	342	57
216.34	375	284	276	351	289	324	406	576	573	645	452	386	361	245	301
217.307	202	263	280	252	171	278	221	385	514	517	532	334	270	281	125
218.273	259	178	420	311	388	332	324	535	591	649	472	383	367	363	258
219.24	340	302	256	367	375	290	420	562	651	502	485	335	335	236	288
220.206	191	269	184	212	323	481	379	549	455	556	342	413	413	388	84
221.172	219	109	198	188	258	230	268	359	569	543	431	345	345	430	223
222.137	349	254	365	294	253	393	525	510	589	517	494	393	338	270	143
223.103	368	366	319	250	266	360	415	544	580	599	490	354	280	418	44
224.069	281	225	325	269	354	364	305	473	354	538	415	394	256	299	240
225.034	275	338	226	363	172	304	389	521	541	519	536	448	424	305	124
225.999	383	290	364	131	372	345	276	447	627	689	599	497	373	435	192
226.964	232	272	447	321	116	255	366	476	601	680	491	409	380	422	213
227.929	260	348	221	245	146	279	305	499	769	667	570	435	413	493	191
228.893	235	244	299	217	278	235	416	624	537	533	443	469	351	197	170
229.858	241	268	285	286	285	340	342	469	527	724	663	570	466	401	111
230.822	399	384	225	234	191	319	423	525	742	640	568	512	404	372	210
231.786	280	368	276	379	176	381	388	554	493	577	488	416	535	421	288
232.75	351	302	394	294	247	201	440	475	590	693	635	401	302	367	131
233.714	360	332	255	184	213	240	340	605	582	637	591	569	384	289	149
234.678	453	313	289	334	302	453	410	493	668	713	475	394	302	379	242
235.641	260	272	255	220	384	391	337	493	601	743	581	550	316	299	222
236.605	310	292	324	237	353	451	513	543	674	643	426	354	336	361	242
237.568	429	381	266	301	326	330	335	411	524	568	424	285	398	333	150
238.531	393	424	216	300	237	399	355	575	599	446	474	467	282	389	176
239.494	255	250	325	222	248	349	356	373	592	700	536	499	216	300	259
240.456	208	312	289	253	268	471	335	493	511	539	499	473	358	275	260
241.419	471	364	294	198	336	427	370	526	630	561	395	265	269	237	270
242.381	253	443	390	363	318	367	370	541	484	577	444	416	316	265	113
243.343	194	245	261	340	250	357	369	420	653	496	401	411	294	329	350
244.305	162	213	239	254	328	353	402	449	587	530	443	340	75	220	-7
245.267	360	253	283	302	292	325	412	561	650	550	525	326	210	133	246
246.229	218	236	313	267	288	250	341	444	468	479	412	380	339	340	133
247.19	410	288	404	303	335	445	364	493	486	642	487	413	295	221	100
248.152	263	271	287	393	303	387	404	482	622	544	479	341	396	490	157
249.113	339	296	244	287	371	345	325	485	497	456	364	339	359	364	106
250.074	444	400	334	310	224	250	416	550	547	632	452	405	179	113	251
251.035	350	402	336	409	299	302	361	458	488	430	435	322	337	328	282
251.996	256	247	269	291	404	383	274	552	633	601	403	405	248	198	165
252.956	223	268	291	218	224	332	316	513	622	616	580	471	255	237	213
253.916	351	307	319	304	177	286	341	609	579	583	546	441	294	268	132
254.877	369	352	278	290	236	278	363	423	608	595	412	243	399	351	212
255.837	289	327	248	358	202	253	335	421	573	480	442	364	223	361	64
256.797	317	308	235	281	395	470	365	310	478	585	441	381	178	310	201
257.757	324	242	387	229	330	314	521	527	585	581	439	383	319	301	204
258.716	239	280	312	331	258	268	320	408	497	441	364	244	386	393	-11
259.675	269	375	331	306	268	434	408	452	526	610	558	527	220	197	149
260.635	366	398	293	165	164	159	486	587	611	648	420	203	292	291	140
261.594	466	343	249	253	278	225	299	382	492	441	500	384	389	292	158
262.553	317	239	218	317	317	421	450	609	519	580	566	427	295	312	152
263.511	319	360	353	366	324	315	281	338	551	480	503	418	307	364	132
264.47	423	406	217	301	325	393	334	555	550	708	416	449	302	277	225
265.428	275	254	254	224	288	237	259	257	427	570	475	402	343	237	197
266.387	258	312	397	382	309	330	417	488	527	381	487	257	358	388	94
267.345	205	261	233	121	167	202	408	382	654	655	382	401	364	342	2
268.303	386	420	407	352	388	411	435	524	608	589	445	283	270	274	185
269.261	237	276	227	429	434	358	333	454	576	505	587	452	283	275	108
270.218	278	347	188	111	293	295	376	604	583	594	524	503	245	249	117
271.175	192	290	304	389	435	335	263	412	633	696	526	378	400	343	214
272.133	343	382	268	216	226	355	342	429	601	591	516	392	429	353	43
273.09	349	460	248	203	173	295	382	452	462	475	445	393	370	388	132
274.047	417	313	449	361	332	384	358	443	621	610	414	358	425	320	148
275.004	228	346	246	230	299	279	351	582	522	538	449	419	347	319	34
275.96	281	445	263	272	344	342	379	485	638	601	416	313	347	411	268
276.917	358	353	290	329	372	363	348	519	555	604	510	442	401	370	206
277.873	419	324	304	286	238	409	343	477	591	593	501	320	185	281	125
278.829	346	348	297	152	434	317	328	527	595	539	617	460	218	260	144
279.785	342	315	318	283	299	389	471	548	733	532	585	605	217	311	165
280.741	299	268	245	356	414	408	419	434	611	664	410	448	326	382	218
281.697	238	254	226	226	205	351	401	526	683	614	314	238	320	255	141
282.652	236	297	234	396	126	237	419	506	505	622	416	387	403	376	314
283.608	479	393	503	384	272	375	300	567	541	564	482	445	237	227	179
284.563	346	457	288	314	358	366	443	674	572	624	463	328	278	278	129
285.518	362	279	254	235	321	363	528	622	604	656	531	390	333	304	127
286.473	404	337	162	275	323	413	335	466	642	617	454	497	462	343	137
287.428	284	191	368	353	334	365	443	649	601	644	556	418	380	409	254
288.382	261	362	347	308	407	429	219	459	603	448	518	477	383	208	216
289.336	208	241	214	254	365	501	447	581	668	758	613	547	381	409	144
290.29	310	330	266	244	359	367	396	591	765	650	676	582	361	427	164
291.245	342	346	406	269	412	440	228	548	726	707	559	420	443	472	333
292.199	394	325	319	327	266	370	481	498	688	803	617	451	337	341	176
293.152	413	367	448	394	240	410	286	393	807	674	629	542	479	517	304
294.106	210	191	426	412	317	307	333	639	695	723	658	427	468	459	217
295.059	259	343	314	293	389	484	561	558	760	739	552	421	376	416	312
296.012	348	285	380	294	300	296	400	567	783	757	726	649	418	414	276
296.966	367	423	165	269	219	466	338	613	704	614	679	495	487	554	355
297.918	405	383	339	325	419	431	479	673	680	710	628	581	442	436	247
298.871	295	479	353	332	392	449	456	686	678	726	589	546	563	579	269
299.824	437	382	334	366	467	400	421	532	761	657	549	480	452	417	289
300.776	272	251	333	280	297	427	408	572	702	634	588	582	380	292	191
301.728	351	388	313	299	182	306	274	518	566	696	562	381	406	396	220
302.68	378	314	395	227	355	390	343	634	527	526	502	512	352	369	292
303.632	208	298	352	377	137	234	381	524	687	553	647	487	369	343	249
304.584	413	350	371	235	232	306	373	530	626	656	620	419	484	440	209
305.536	335	251	361	288	305	426	377	530	634	724	424	286	275	383	174
306.488	405	435	329	267	261	338	380	549	548	542	546	442	308	297	210
307.439	197	202	257	292	343	362	237	518	672	744	524	401	411	341	183
308.39	401	395	292	343	342	309	478	616	695	745	583	534	422	378	189
309.341	337	308	286	306	416	432	444	624	713	760	557	517	418	386	247
310.292	303	483	403	432	286	352	342	643	651	715	674	694	336	394	184
311.242	375	427	213	209	402	548	480	535	625	736	638	705	434	483	189
312.193	343	256	403	429	349	492	415	574	583	652	773	674	440	404	375
313.143	361	308	358	267	256	332	432	651	752	839	712	591	531	511	124
314.093	286	285	344	353	466	517	489	646	775	902	684	609	527	382	271
315.044	267	302	288	275	333	486	351	634	1144	968	795	616	493	416	278
315.993	408	486	289	288	341	359	312	525	859	912	864	682	646	552	157
316.943	396	325	292	337	389	494	585	788	1028	897	943	792	655	638	157
317.893	500	415	493	331	374	276	529	760	884	989	878	742	582	675	242
318.842	464	453	394	309	468	487	553	837	985	935	1007	956	529	511	290
319.791	357	472	424	473	419	600	651	800	1132	1055	963	905	625	604	264
320.74	407	379	472	491	495	526	572	652	1121	1109	871	836	755	799	379
321.689	366	398	364	417	301	499	592	792	1169	1174	1069	910	651	588	403
322.638	427	340	446	376	510	604	546	729	1137	1126	1157	1047	701	733	208
323.586	466	444	400	442	424	553	614	797	896	1037	1067	1023	700	741	354
324.535	343	395	468	302	488	497	532	669	1036	1071	1092	887	713	735	489
325.483	422	416	471	434	430	441	620	858	1095	1153	1058	963	629	717	421
326.431	492	376	391	340	360	434	479	687	1087	1120	912	892	651	608	369
327.379	412	430	319	357	425	527	296	638	1097	1113	962	955	752	686	401
328.327	436	405	458	444	306	442	464	757	1003	1035	1038	1022	662	608	367
329.274	351	382	270	333	465	464	434	745	1075	1046	997	872	673	671	250
330.222	325	307	395	255	425	592	708	843	979	1059	1041	956	727	692	429
331.169	349	291	361	456	449	357	649	768	1029	1118	1057	961	616	646	398
332.116	370	408	689	495	501	538	584	868	1103	1166	1080	988	800	714	353
333.063	430	249	515	363	442	463	549	909	990	1127	996	1051	648	700	419
334.01	494	428	273	383	485	596	543	773	1206	1133	1144	1099	844	775	278
334.957	397	559	562	461	542	628	559	897	1119	1283	1140	1051	868	709	336
335.903	410	417	394	486	519	645	577	896	1147	1201	1360	1147	833	787	421
336.849	435	482	495	545	503	625	500	832	1360	1333	1379	1322	1009	899	392
337.796	526	608	510	588	598	666	727	1109	1605	1546	1390	1270	986	991	524
338.742	584	505	615	559	719	909	758	1113	1425	1497	1570	1508	897	931	435
339.688	598	456	489	621	676	749	836	1172	1692	1850	1699	1567	977	1051	587
340.633	516	594	555	449	632	791	799	1124	1588	1847	1801	1616	1233	1215	629
341.579	623	722	678	697	769	904	959	1373	1755	1933	1853	1880	1290	1351	742
342.524	648	535	637	659	880	932	848	1341	2001	2117	2074	1925	1274	1289	688
343.47	704	740	850	816	826	980	959	1492	2120	2336	2083	2168	1483	1585	643
344.414	778	815	735	908	906	1079	1181	1616	2221	2526	2298	2242	1753	1672	746
345.359	771	871	890	862	988	1102	1183	1538	2494	2677	2475	2454	1772	1651	893
346.304	912	965	876	786	1133	1205	1140	1693	2800	2705	2730	2620	1763	1853	895
347.249	887	740	827	969	1091	1143	1214	1832	3200	2959	2954	2922	1869	1900	925
348.193	876	1010	852	945	1007	1136	1356	2047	2861	3170	3122	2968	2091	2325	1153
349.137	1020	925	1050	1113	1245	1367	1407	2264	3125	3512	3400	3278	2200	2313	1184
350.081	1044	899	884	844	1203	1309	1502	2216	3482	3769	3434	3352	2538	2504	1329
351.025	913	852	1049	982	1234	1502	1554	2165	3513	3830	3638	3561	2423	2433	1359
351.969	931	916	972	1032	1122	1379	1465	2197	3055	3592	3429	3501	2409	2451	1127
352.913	728	856	946	954	1195	1256	1547	2279	3204	3489	3645	3559	2559	2440	1286
353.856	842	849	875	856	1074	1163	1327	1983	2871	3228	3225	3156	2313	2388	1157
354.8	671	789	783	846	958	1061	1229	1909	2723	2937	3133	2964	1999	1812	909
355.743	778	741	643	611	879	970	1212	1725	2487	2705	2695	2762	1915	1798	844
356.686	565	508	538	664	688	852	903	1396	2215	2358	2315	2395	1627	1435	734
357.628	503	450	423	534	496	686	855	1200	1777	1836	1824	1693	1373	1199	640
358.571	422	448	485	433	483	650	682	1036	1450	1444	1399	1327	1011	982	524
359.513	385	328	413	471	362	636	627	895	1220	1415	1110	1038	855	861	478
360.456	367	337	463	316	375	361	452	539	820	791	878	846	484	485	311
361.398	355	414	342	451	418	318	494	730	794	910	809	703	535	512	327
362.34	470	377	363	209	289	307	349	557	712	782	639	679	463	547	345
363.282	326	348	262	324	291	411	366	561	671	629	629	610	322	297	325
364.224	236	252	307	136	160	170	499	510	723	729	696	583	503	505	214
365.165	381	312	442	370	411	467	521	597	752	706	635	581	451	500	313
366.107	355	373	210	350	244	248	391	511	670	645	595	491	412	502	226
367.048	457	359	301	295	340	380	355	447	741	755	595	475	447	398	235
367.989	375	399	294	312	280	409	233	328	648	499	485	496	347	308	86
368.93	353	326	369	229	204	386	334	559	663	677	627	480	354	476	262
369.871	367	242	336	333	387	220	370	652	624	646	526	482	458	339	213
370.811	393	312	364	383	215	256	451	517	645	654	590	521	365	343	212
371.752	185	245	282	162	286	396	402	491	563	631	660	531	426	288	280
372.692	379	351	249	264	348	417	300	473	624	639	504	575	339	351	189
373.632	247	384	276	279	304	403	381	531	536	601	658	532	350	286	192
374.572	193	276	305	276	352	451	426	493	638	733	610	492	435	450	101
375.512	264	219	333	382	285	238	360	534	594	637	521	450	385	365	212
376.452	276	393	272	143	253	364	224	384	644	668	425	374	339	400	358
377.391	342	321	256	186	364	412	323	531	587	616	461	384	339	398	344
378.33	331	330	198	346	341	335	456	469	674	522	590	532	295	330	184
379.269	218	335	320	257	150	278	184	341	467	404	478	492	279	282	61
380.208	468	414	311	359	247	286	429	490	571	631	568	489	514	419	380
381.147	377	323	326	305	231	170	399	453	653	422	544	416	278	401	154
382.086	247	314	237	158	288	451	386	442	435	525	463	385	322	159	217
383.025	338	326	243	293	211	389	300	349	573	512	497	358	364	479	223
383.963	171	205	365	295	222	357	293	583	771	701	598	515	305	316	248
384.901	309	337	195	264	383	375	345	478	649	717	487	362	315	391	243
385.839	359	318	129	184	365	379	434	485	484	514	514	478	424	268	86
386.777	282	375	386	242	250	310	442	653	647	651	469	287	289	320	136
387.715	350	252	357	315	336	395	416	412	614	514	471	414	417	270	282
388.652	308	258	399	197	394	426	352	522	608	527	536	404	381	276	207
389.59	316	217	343	323	420	467	359	493	591	581	385	374	323	371	230
390.527	344	315	450	504	157	315	414	582	565	522	487	359	378	420	349
391.464	427	366	216	316	182	327	394	441	602	618	408	374	394	274	188
392.401	354	307	321	328	246	185	350	407	588	588	432	386	351	283	216
393.338	279	353	318	309	265	437	332	571	581	626	537	441	349	406	272
394.274	414	371	271	331	318	401	339	424	642	587	504	354	168	304	263
395.211	245	360	336	251	239	273	330	593	505	523	511	519	341	298	248
396.147	309	310	257	146	344	198	429	537	568	505	497	389	278	284	226
397.083	319	158	330	282	268	345	356	461	646	607	520	332	216	224	130
398.019	302	296	271	192	263	413	376	527	662	623	434	315	198	244	147
398.955	362	258	295	327	313	329	253	475	586	511	388	292	278	244	147
399.891	361	340	207	273	230	317	343	491	542	520	447	371	283	325	206
400.827	397	253	440	273	180	98	284	529	460	491	433	297	334	272	112
401.762	330	313	327	392	273	336	411	532	574	530	403	367	409	408	224
402.697	287	322	174	241	216	335	436	470	722	652	441	274	213	287	190
403.632	271	174	314	305	339	357	407	569	647	647	500	332	349	272	204
404.567	272	309	195	128	302	332	409	474	544	557	514	419	289	317	190
405.502	277	300	409	251	271	413	404	568	649	647	531	560	372	436	211
406.436	403	305	273	324	316	375	348	414	643	557	438	289	332	298	219
407.371	305	200	438	301	398	442	343	554	596	590	434	410	398	291	174
408.305	298	435	251	242	317	424	386	630	616	714	473	359	326	293	288
409.239	436	381	428	239	325	408	551	619	783	590	617	457	365	501	164
410.173	462	355	375	432	294	329	308	438	661	803	482	425	353	305	347
411.107	324	375	413	403	347	408	517	597	689	797	499	513	482	410	253
412.041	395	280	355	275	445	397	328	549	788	716	617	558	432	380	276
412.974	307	399	452	381	300	370	410	499	774	862	640	647	544	709	376
413.907	449	440	435	495	359	505	418	642	799	770	753	663	399	538	315
414.84	362	343	408	422	470	579	446	638	881	1014	899	889	585	598	466
415.774	528	455	454	349	451	502	536	749	973	1029	923	846	582	661	385
416.706	387	467	435	494	550	597	635	849	1031	1055	1091	1002	759	781	423
417.639	454	597	588	483	532	748	578	840	1063	1257	1182	996	796	689	418
418.571	511	553	515	584	511	612	637	1006	1144	1025	976	912	692	802	409
419.504	393	497	455	499	587	518	597	803	1189	1206	906	705	598	513	341
420.436	433	408	357	511	421	514	456	736	896	843	764	635	440	441	380
421.368	334	252	461	521	409	504	546	714	735	708	551	543	546	427	143
422.3	429	384	359	131	510	565	457	642	629	619	563	344	337	370	55
423.232	267	330	207	229	262	386	337	435	670	646	420	274	362	278	208
424.163	267	301	304	265	282	361	362	458	580	453	483	373	360	342	220
425.095	451	440	258	310	370	439	397	723	562	650	512	271	337	330	259
426.026	280	248	258	218	366	427	335	504	519	590	376	295	205	188	191
426.957	261	372	230	337	370	290	294	451	603	665	441	358	244	426	176
427.888	309	295	293	240	264	343	325	454	592	599	572	375	377	268	233
428.819	251	267	304	420	312	388	407	551	693	679	336	362	357	300	243
429.75	253	155	290	341	249	324	313	502	416	532	325	351	182	270	210
430.68	336	297	356	292	313	290	486	626	517	539	349	409	249	323	127
431.611	263	242	186	310	344	343	455	429	488	369	460	306	361	312	123
432.541	322	235	356	331	354	363	315	498	587	651	464	434	244	309	145
433.471	246	127	324	273	348	383	343	453	701	584	396	280	440	362	156
434.401	393	258	334	338	304	412	296	608	623	547	442	310	230	276	165
435.33	318	288	218	238	349	361	429	527	583	472	369	369	309	265	86
436.26	315	281	341	354	350	364	289	387	614	478	408	251	288	335	168
437.189	357	437	266	160	249	343	343	514	618	480	504	332	442	412	261
438.119	298	222	400	348	343	354	273	498	670	732	493	301	361	238	70
439.048	174	233	357	347	267	361	384	509	502	498	366	291	294	237	336
439.976	398	284	241	198	305	335	328	499	612	607	510	425	327	184	81
440.905	365	317	428	391	227	343	254	442	511	701	437	402	223	247	255
441.834	301	368	343	273	179	234	363	463	560	530	389	317	402	351	226
442.763	426	454	228	234	339	395	355	418	649	564	484	404	265	258	224
443.691	244	251	366	349	324	362	492	623	651	606	311	342	370	399	71
444.619	421	409	370	322	349	340	432	577	513	505	502	282	365	254	190
445.547	297	357	322	275	271	332	373	427	690	601	463	382	290	418	166
446.475	413	397	343	350	262	265	258	420	543	496	363	226	195	311	166
447.402	219	297	205	357	281	313	317	493	590	669	542	377	350	396	129
448.33	288	347	211	330	400	337	394	543	668	510	405	289	249	305	244
449.257	313	338	268	300	297	266	281	450	588	557	501	357	243	173	132
450.184	194	253	353	262	224	348	342	460	480	497	470	437	138	188	221
451.112	259	341	305	291	202	313	401	475	546	570	402	398	201	249	150
452.038	258	329	312	311	350	396	365	447	446	510	408	387	257	363	151
452.965	406	349	231	229	281	277	413	553	725	644	347	281	283	280	93
453.892	200	271	324	228	185	229	336	506	691	697	489	337	356	401	196
454.818	396	399	262	217	319	298	367	522	505	329	403	356	212	327	156
455.744	339	287	440	480	317	318	499	649	548	556	435	394	124	218	112
456.671	300	357	232	169	258	350	407	403	563	572	414	332	230	298	140
457.597	352	467	390	411	413	335	435	495	651	566	456	341	361	290	119
458.522	333	325	407	344	390	383	247	451	623	602	433	362	180	203	118
459.448	334	405	322	347	359	335	320	436	602	528	366	370	257	250	92
460.374	374	379	358	303	262	346	240	444	557	566	420	242	182	244	92
461.299	254	319	378	287	317	325	390	512	588	545	528	489	277	345	219
462.224	436	392	348	304	345	436	306	439	623	593	528	474	363	308	105
463.149	324	326	292	328	296	317	337	473	615	552	537	539	254	275	192
464.074	435	356	332	383	343	382	338	589	498	490	402	248	337	245	300
464.999	320	296	262	226	319	325	395	499	565	499	549	362	134	139	224
465.923	345	273	213	181	197	364	422	546	561	568	446	183	266	265	199
466.847	394	354	295	356	183	228	366	499	590	532	441	329	239	238	210
467.772	373	344	257	329	376	377	235	309	495	594	412	322	269	241	148
468.696	381	381	405	270	299	354	275	547	631	579	538	387	370	361	219
469.62	431	314	282	295	253	361	329	569	599	613	473	337	371	359	318
470.544	416	432	255	259	222	310	321	598	488	666	450	307	208	355	326
471.467	329	313	295	237	204	260	417	512	481	462	541	490	372	316	154
472.391	305	399	203	225	260	337	355	517	563	586	538	278	333	256	177
473.314	355	347	325	239	342	271	402	472	788	663	477	499	363	249	124
474.237	420	276	248	338	362	364	326	467	703	614	382	330	332	240	164
475.16	294	396	407	165	326	309	384	536	547	481	458	375	244	242	179
476.083	240	351	231	270	261	318	386	565	580	692	546	376	342	222	138
477.006	479	350	322	268	373	314	398	535	654	659	463	444	312	394	96
477.928	296	261	225	279	282	307	256	417	544	626	461	297	336	272	132
478.851	268	302	127	213	282	407	261	472	626	528	545	387	196	342	206
479.773	205	227	391	269	293	370	303	430	605	652	546	372	309	361	226
480.695	339	369	392	368	265	323	467	556	693	669	388	463	241	275	150
481.617	401	402	325	277	392	454	359	378	531	456	360	519	242	209	77
482.539	268	383	264	301	312	280	393	574	586	559	419	394	249	243	235
483.46	435	386	370	316	333	353	454	502	615	599	477	315	283	269	158
484.382	308	344	292	265	368	383	281	452	716	702	396	415	315	280	251
485.303	440	447	327	304	333	420	383	554	680	594	523	479	370	332	284
486.224	422	343	208	165	302	373	380	529	762	566	542	420	321	230	241
487.145	313	438	251	253	319	287	327	412	674	624	589	395	307	325	317
488.066	463	348	310	308	502	420	375	496	651	667	491	418	283	367	246
488.987	298	277	341	318	163	428	399	525	679	627	416	409	216	273	142
489.907	393	453	429	312	488	489	462	531	515	539	615	527	331	235	182
490.828	375	286	301	403	313	294	353	458	643	514	551	336	242	238	184
491.748	281	391	360	421	328	475	422	610	634	610	440	330	232	268	184
492.668	347	384	303	255	303	346	429	588	559	643	452	347	326	279	258
493.588	335	301	517	410	311	343	471	611	612	541	485	453	253	289	210
494.508	338	416	325	287	233	295	318	547	652	589	592	314	392	396	211
495.427	322	304	392	300	336	475	440	382	586	507	474	325	401	361	137
496.347	304	389	286	354	288	427	370	498	627	505	365	432	361	259	194
497.266	290	290	422	217	410	501	284	576	709	565	620	493	317	399	243
498.185	403	323	451	297	167	255	424	429	667	665	512	401	303	434	180
499.104	486	417	302	291	285	338	435	600	761	678	415	343	258	296	16
500.023	343	324	313	346	354	465	278	470	450	501	421	419	339	292	206
500.942	334	359	118	155	282	349	424	485	539	492	516	447	405	466	103
501.86	377	399	326	350	397	381	353	512	766	619	439	298	284	324	157
502.779	399	344	326	329	357	399	370	509	653	697	538	566	292	279	212
503.697	354	390	300	235	207	210	367	560	728	686	438	367	506	500	182
504.615	411	422	481	439	338	381	288	590	553	559	462	341	275	283	95
505.533	475	448	323	296	319	365	362	371	661	712	592	280	303	363	193
506.45	280	427	458	400	283	320	542	628	752	642	589	495	346	417	89
507.368	364	331	354	300	297	353	328	608	682	577	445	467	345	295	227
508.286	403	328	371	377	265	245	376	548	697	546	578	341	425	425	340
509.203	486	363	335	391	299	488	416	556	678	562	491	481	308	300	100
510.12	343	229	436	448	247	352	343	471	727	710	533	468	533	468	209
511.037	334	324	538	416	400	459	378	718	765	731	705	567	705	567	198
511.954	377	316	317	302	460	477	327	530	721	644	562	475	562	475	322
512.87	399	372	327	322	353	375	401	571	723	601	588	530	588	530	129
513.787	354	469	401	325	267	329	406	516	754	709	624	563	624	563	364
514.703	354	339	271	426	337	373	463	592	792	791	634	494	634	494	212
515.619	411	434	429	318	382	522	404	541	796	672	530	517	530	517	73
516.536	475	490	408	229	311	436	480	592	669	669	661	502	661	502	315
517.452	334	496	407	314	409	461	354	548	783	736	648	453	371	318	299
518.367	567	546	452	517	301	421	470	657	864	754	707	643	450	460	237
519.283	542	485	501	481	509	577	522	658	857	821	739	641	485	372	340
520.198	518	419	337	451	395	461	463	693	920	911	713	675	477	396	277
521.114	519	336	482	442	483	416	525	789	961	927	754	538	570	553	269
522.029	492	386	536	443	506	477	513	649	763	758	719	639	336	317	250
522.944	415	511	418	464	517	557	418	538	721	789	547	545	363	302	149
523.858	523	433	438	322	345	369	471	554	681	741	625	491	496	372	269
524.773	401	433	362	400	412	431	423	581	752	861	713	570	416	390	171
525.688	415	396	439	429	323	393	339	422	822	760	631	558	448	444	234
526.602	463	276	326	337	515	515	393	552	613	722	506	420	365	410	270
527.517	344	345	399	301	399	440	424	471	739	772	550	401	369	446	241
528.43	326	273	329	366	180	397	402	481	704	707	528	415	381	336	228
529.344	473	373	373	288	338	395	484	548	624	666	578	517	239	332	75
530.258	324	327	355	434	305	404	495	580	639	763	508	450	293	390	173
531.172	259	343	451	432	341	423	415	600	763	534	527	455	451	361	273
532.085	517	353	407	278	326	401	313	519	505	604	549	481	368	296	170
532.998	345	383	286	234	413	398	458	674	649	623	527	554	346	398	248
533.912	248	254	430	396	231	415	429	573	675	697	546	461	346	327	155
534.824	413	364	263	268	246	344	353	511	700	609	416	303	404	524	190
535.737	504	369	457	408	264	364	318	605	551	629	575	483	379	294	205
536.65	369	350	512	452	245	301	458	586	384	489	515	352	422	309	183
537.563	317	308	256	264	366	415	435	622	725	725	474	406	356	277	314
538.475	402	339	258	350	348	425	423	556	715	617	363	414	318	268	189
539.387	346	414	339	351	311	271	512	617	714	797	435	233	323	244	134
540.299	431	304	385	321	321	343	436	546	541	541	514	485	201	395	242
541.211	197	258	360	449	349	493	469	603	664	617	541	443	315	339	142
542.123	457	415	404	376	375	258	418	529	705	693	345	319	333	256	197
543.035	340	272	316	247	324	365	309	572	542	570	657	514	227	300	220
543.946	460	318	307	234	372	362	470	529	644	651	521	322	195	352	204
544.857	438	387	465	431	306	345	434	613	674	479	551	461	241	327	86
545.769	277	284	265	373	317	436	425	500	595	644	451	429	384	327	217
546.68	156	211	369	410	380	381	301	430	688	599	511	319	301	269	200
547.591	362	261	360	347	166	333	447	601	694	723	493	407	390	415	205
548.501	383	326	378	391	324	366	328	527	631	542	342	339	362	435	122
549.412	376	277	276	206	270	283	322	472	643	552	523	370	275	319	176
550.322	437	379	318	197	201	281	376	504	521	500	491	300	382	360	98
551.232	480	430	333	279	463	518	325	415	556	522	381	364	356	287	220
552.143	231	230	469	383	288	357	383	517	740	595	352	335	246	187	154
553.052	432	364	294	315	304	321	394	535	566	514	513	314	279	285	126
553.962	388	422	452	371	285	440	422	506	639	533	345	382	238	220	261
554.872	240	309	331	273	342	359	476	509	498	552	440	467	178	257	57
555.781	419	309	285	273	294	248	344	501	597	505	464	327	297	258	133
556.691	338	280	142	128	201	322	300	497	535	473	563	367	396	281	108
557.6	435	434	336	255	293	304	288	494	598	476	361	285	122	225	277
558.509	421	330	347	353	310	436	422	467	599	623	439	359	323	247	275
559.418	248	247	178	296	236	340	366	522	463	546	529	401	515	439	55
560.326	353	399	314	289	334	432	389	516	517	427	459	435	301	393	313
561.235	421	477	363	292	334	337	380	465	634	605	583	441	359	248	148
562.144	275	376	219	299	267	377	431	357	552	500	427	310	295	359	263
563.052	323	331	348	283	290	345	205	374	635	462	532	410	252	425	124
563.96	333	329	355	343	381	460	406	539	523	549	592	471	372	340	190
564.868	408	336	367	299	256	364	394	579	708	601	493	384	182	263	242
565.775	462	294	352	412	382	352	353	466	636	632	433	348	314	253	120
566.683	504	501	357	249	243	373	495	676	434	591	511	501	357	284	281
567.591	317	331	398	305	263	303	361	548	566	530	545	475	362	247	253
568.498	375	461	314	189	274	412	174	370	634	585	490	329	418	441	190
569.405	423	452	401	432	244	416	500	535	721	675	413	383	464	429	212
570.312	386	499	344	257	376	506	469	425	716	608	517	429	359	385	209
571.219	345	453	427	265	222	311	322	463	683	624	580	412	358	342	297
572.126	459	389	337	378	336	303	324	608	676	695	539	428	294	331	205
573.032	327	304	349	348	300	339	529	515	583	508	521	485	425	404	226
573.939	468	443	433	379	324	442	445	540	676	676	518	414	333	337	206
574.845	426	360	392	400	368	344	492	707	608	592	538	476	303	353	267
575.751	489	358	372	295	385	489	439	507	863	788	428	419	424	456	288
576.657	381	335	329	332	308	375	400	626	821	846	564	450	404	342	194
577.563	417	385	305	370	390	494	398	576	477	562	621	550	411	407	176
578.469	413	394	279	335	466	543	409	523	737	699	591	578	614	522	353
579.374	284	379	431	356	363	398	444	620	810	783	561	637	400	412	271
580.28	424	388	335	408	337	501	469	572	704	653	517	449	447	451	298
581.185	478	409	312	326	373	410	379	703	741	688	681	560	472	506	374
582.09	354	404	362	270	556	426	361	577	736	644	561	429	364	472	304
582.995	452	457	360	410	377	481	505	577	645	650	700	439	380	370	168
583.9	465	384	444	459	297	442	372	469	588	559	469	430	500	393	210
584.805	466	368	387	367	332	459	520	585	755	698	546	529	426	425	203
585.709	434	541	360	343	357	388	361	607	775	698	520	379	181	277	219
586.613	357	342	279	398	268	379	485	541	628	550	510	390	265	327	306
587.517	326	317	343	357	284	252	268	620	642	575	390	295	347	285	259
588.421	252	215	249	329	245	368	411	577	544	515	484	387	279	293	227
589.325	300	225	246	363	408	362	492	569	462	513	477	356	506	347	200
590.229	358	284	291	289	273	411	335	444	542	420	422	345	348	360	118
591.132	347	301	219	271	360	423	344	379	696	745	413	372	235	238	123
592.036	245	251	256	266	380	413	377	421	596	534	536	439	471	476	194
592.939	269	362	338	279	282	441	448	530	733	590	545	368	308	275	3
593.842	341	247	306	306	322	347	420	480	577	671	468	287	257	276	237
594.745	314	308	411	310	348	394	361	460	535	517	395	264	416	340	147
595.648	414	415	344	381	311	289	458	548	572	646	437	361	284	303	167
596.551	342	305	316	277	235	245	355	553	636	555	419	263	150	246	182
597.453	428	353	239	96	256	262	411	546	578	449	441	338	300	153	133
598.355	319	440	281	325	286	440	385	572	669	555	480	301	295	322	204
599.258	297	316	248	346	347	414	303	461	656	552	429	446	249	291	205
600.16	303	330	281	234	372	394	388	513	503	516	586	476	305	275	183
601.062	355	297	416	320	440	483	547	568	635	593	534	328	414	423	128
601.963	244	171	237	217	427	446	448	499	526	647	476	467	382	328	212
602.865	326	348	281	236	285	239	420	511	520	468	508	383	282	270	181
603.767	345	334	371	351	299	331	361	578	609	530	446	337	222	257	138
604.668	336	288	314	248	266	332	458	404	598	536	412	340	231	322	168
605.569	339	231	291	297	326	329	355	377	609	611	319	258	327	340	228
606.47	427	299	332	349	278	410	411	556	618	516	531	517	266	240	262
607.371	357	272	269	372	417	459	436	464	518	550	340	217	359	300	116
608.271	440	371	417	302	356	272	250	571	716	672	451	352	314	392	190
609.172	135	238	413	297	209	326	336	456	479	584	456	426	231	183	219
610.073	381	296	359	494	260	279	386	574	588	656	469	289	242	335	106
610.972	522	391	374	260	252	399	354	428	590	569	424	347	152	238	121
611.873	465	504	292	322	357	343	402	447	499	383	592	503	289	274	280
612.773	278	344	361	361	321	271	312	444	548	538	354	283	326	302	185
613.673	323	253	217	279	420	361	385	600	499	440	472	302	336	372	123
614.572	400	300	277	237	323	445	337	568	551	562	503	406	262	240	172
615.472	398	280	313	329	372	398	350	638	609	570	570	570	342	209	134
616.371	291	220	281	316	237	324	385	458	594	581	581	581	400	353	116
617.27	378	339	319	314	303	339	282	607	628	611	611	611	379	291	146
618.169	471	327	240	282	347	395	398	592	558	526	526	526	363	264	109
619.068	397	359	242	262	198	339	448	531	572	622	622	622	410	283	239
619.967	375	258	232	268	271	302	352	535	608	478	478	478	352	353	173
620.866	222	220	348	403	416	274	352	483	414	451	451	451	278	272	186
621.764	379	396	245	386	214	231	255	477	661	487	487	487	294	327	189
622.662	370	331	281	176	263	315	475	566	521	544	315	227	236	414	156
623.56	352	430	290	252	377	373	330	580	579	531	408	374	301	299	228
624.458	454	436	415	306	365	234	299	551	592	688	428	270	342	280	255
625.356	364	286	295	345	329	340	285	476	600	433	419	436	274	254	148
626.254	367	253	212	321	374	483	263	402	615	565	313	393	369	394	314
627.151	439	479	334	265	332	351	429	589	536	520	463	284	199	176	185
628.049	362	332	290	358	413	372	289	434	656	579	394	356	364	260	253
628.946	404	320	318	406	446	514	339	612	635	663	414	307	252	196	217
629.843	359	255	303	326	299	402	381	542	589	506	550	398	210	211	101
630.74	365	348	357	273	283	329	347	571	527	533	490	440	207	203	75
631.637	381	336	250	275	493	411	520	555	500	518	384	156	347	304	260
632.533	385	371	517	417	341	268	343	530	681	649	390	372	199	172	130
633.43	365	378	386	321	357	407	415	606	618	529	400	347	401	392	229
634.326	383	369	442	263	274	385	319	565	657	598	403	320	338	237	205
635.222	440	384	357	244	336	266	433	648	436	555	404	293	292	301	174
636.119	389	423	197	271	306	352	371	499	520	550	530	360	244	324	146
637.015	457	305	323	303	260	383	392	489	525	539	568	358	497	369	163
637.91	345	335	314	249	435	373	348	353	642	508	480	353	302	380	203
638.806	263	447	241	253	295	309	255	521	560	573	406	305	268	272	21
639.701	322	214	249	347	285	317	426	619	625	549	443	465	245	256	105
640.596	381	403	372	332	341	499	424	542	709	674	383	275	266	404	81
641.492	463	342	423	287	266	284	442	548	523	529	510	428	355	374	-47
642.387	342	416	298	362	316	416	287	511	577	406	542	395	326	239	301
643.282	379	405	308	389	318	430	430	522	550	568	541	344	341	405	127
