Raman_shift(cm-1)	Intensity(a.u.)
-701.911	-2.33571
-700.784	-3.25143
-699.659	-3.75143
-698.533	-4.73143
-697.408	-4.79286
-696.283	-5.57
-695.158	-6.00857
-694.033	-5.71857
-692.908	-5.71571
-691.784	-5.73857
-690.659	-5.75429
-689.536	-5.56571
-688.412	-5.04286
-687.288	-4.79857
-686.165	-5.13571
-685.041	-5.21571
-683.918	-5.52857
-682.796	-5.35286
-681.673	-5.38143
-680.55	-5.86857
-679.429	-6.07857
-678.306	-5.90857
-677.184	-5.36429
-676.063	-5.22429
-674.941	-5.09714
-673.82	-5.18571
-672.699	-4.89714
-671.578	-4.91714
-670.458	-4.79429
-669.337	-5.15571
-668.217	-5.21714
-667.097	-5.22714
-665.977	-4.88143
-664.857	-5.02286
-663.738	-4.91429
-662.619	-5.24857
-661.5	-5.23571
-660.381	-5.56
-659.262	-5.58143
-658.144	-5.78286
-657.026	-5.60143
-655.908	-5.41
-654.79	-5.29857
-653.672	-5.19571
-652.555	-4.73
-651.437	-4.61571
-650.32	-4.59857
-649.203	-4.44286
-648.087	-4.52571
-646.97	-4.69714
-645.854	-4.53429
-644.738	-4.77286
-643.622	-5.16286
-642.506	-5.32714
-641.391	-5.53714
-640.276	-5.77857
-639.161	-5.05143
-638.046	-5.37714
-636.931	-4.97286
-635.816	-4.43714
-634.702	-4.47857
-633.588	-4.55429
-632.474	-4.42143
-631.36	-4.90286
-630.247	-4.54571
-629.133	-4.90143
-628.02	-4.89857
-626.907	-4.55429
-625.794	-4.16571
-624.682	-4.10571
-623.57	-4.16857
-622.458	-4.37714
-621.346	-4.33714
-620.234	-4.62571
-619.122	-4.77571
-618.011	-4.83429
-616.9	-4.90571
-615.789	-4.68429
-614.678	-4.59429
-613.567	-4.19
-612.457	-4.12
-611.347	-4.15857
-610.237	-4.50286
-609.127	-4.64714
-608.017	-4.76714
-606.908	-4.77571
-605.799	-4.78571
-604.69	-4.81286
-603.581	-4.83143
-602.473	-4.62857
-601.364	-4.23
-600.256	-3.80286
-599.148	-3.71571
-598.04	-3.88286
-596.932	-3.59286
-595.825	-3.42714
-594.718	-3.21143
-593.611	-3.38286
-592.504	-3.57857
-591.397	-3.57714
-590.291	-3.69571
-589.185	-3.77286
-588.078	-3.47286
-586.972	-3.21286
-585.867	-2.96857
-584.761	-2.30714
-583.656	-1.99857
-582.551	-1.85
-581.446	-1.39143
-580.341	-1.26429
-579.237	-1.31286
-578.132	-1.05429
-577.028	-1.47429
-575.924	-1.4
-574.821	-1.14
-573.717	-1.48143
-572.614	-1.58
-571.51	-1.72429
-570.407	-1.99857
-569.305	-2.29714
-568.202	-2.42
-567.1	-2.65143
-565.998	-2.68857
-564.896	-2.69143
-563.794	-2.95571
-562.692	-2.97286
-561.591	-2.94143
-560.49	-3.09
-559.389	-2.93
-558.288	-2.95
-557.187	-3.29
-556.086	-2.8
-554.986	-3.20714
-553.887	-3.00571
-552.787	-3.19429
-551.687	-3.32857
-550.587	-3.22857
-549.488	-3.22
-548.389	-3.37714
-547.29	-2.77
-546.192	-2.75714
-545.093	-2.60571
-543.995	-2.42571
-542.897	-2.56286
-541.798	-2.04714
-540.701	-1.92857
-539.603	-1.67286
-538.506	-1.67429
-537.409	-1.70714
-536.312	-1.71429
-535.215	-1.35
-534.118	-1.68
-533.022	-1.53429
-531.926	-1.81571
-530.83	-1.67714
-529.734	-1.41571
-528.639	-1.03286
-527.543	-1.07
-526.448	-0.812857
-525.353	-0.891429
-524.258	-0.767143
-523.163	-0.817143
-522.069	-0.538571
-520.975	-0.541429
-519.88	-0.31
-518.787	-0.164286
-517.693	-0.0742857
-516.599	-0.304286
-515.506	-0.192857
-514.413	-0.384286
-513.32	-0.895714
-512.228	-0.864286
-511.135	-0.98
-510.042	-1.25714
-508.95	-1.02571
-507.859	-0.967143
-506.767	-0.897143
-505.675	-0.637143
-504.584	-1.07714
-503.493	-0.97
-502.401	-0.527143
-501.31	-0.588571
-500.22	-0.934286
-499.13	-0.96
-498.039	-0.94
-496.949	-0.737143
-495.859	-0.751429
-494.77	-0.765714
-493.68	-0.648571
-492.591	-0.528571
-491.502	-0.512857
-490.413	-0.317143
-489.324	-0.112857
-488.236	-0.222857
-487.147	-0.468571
-486.059	-0.341429
-484.971	-0.224286
-483.884	-0.314286
-482.796	-0.254286
-481.709	-0.0714286
-480.622	-0.167143
-479.535	-0.211429
-478.448	-0.38
-477.361	-0.00428571
-476.275	0.401429
-475.189	0.498571
-474.103	0.407143
-473.017	0.798571
-471.931	0.931429
-470.846	0.844286
-469.76	0.822857
-468.675	0.6
-467.59	0.141429
-466.505	0.00714286
-465.421	-0.26
-464.337	-0.248571
-463.253	0.0657143
-462.169	0.0271429
-461.085	-0.12
-460.002	-0.0685714
-458.918	-0.108571
-457.835	-0.124286
-456.752	0.0257143
-455.669	-0.0257143
-454.587	-0.0585714
-453.504	0.318571
-452.422	0.785714
-451.34	1.00143
-450.258	1.26857
-449.176	1.39143
-448.095	1.51429
-447.013	1.50143
-445.932	1.57714
-444.852	1.56
-443.771	1.60143
-442.69	1.85857
-441.61	1.86571
-440.53	2.00571
-439.45	2.22286
-438.37	2.37143
-437.29	2.36286
-436.211	2.15714
-435.132	2.01429
-434.053	2.03143
-432.974	2.34286
-431.895	2.48
-430.817	2.80571
-429.739	3.56857
-428.661	4.14429
-427.583	4.86714
-426.505	6.15
-425.427	6.78571
-424.35	8.02714
-423.273	9.58143
-422.196	11.3386
-421.119	14.8371
-420.043	19.4186
-418.966	26.1686
-417.89	34.1643
-416.814	41.5929
-415.739	46.6643
-414.663	49.6586
-413.587	49.9671
-412.512	47.6429
-411.437	41.6871
-410.362	34.2386
-409.288	26.4129
-408.213	20.0743
-407.139	15.1286
-406.065	11.4857
-404.991	8.86429
-403.917	7.25714
-402.843	6.10429
-401.77	5.11143
-400.697	4.37571
-399.624	3.78714
-398.551	3.37571
-397.478	3.01286
-396.406	2.34286
-395.334	1.80286
-394.262	1.68286
-393.19	1.30857
-392.118	1.14
-391.047	0.988571
-389.975	1.17143
-388.904	1.19286
-387.833	1.43286
-386.763	1.47571
-385.692	1.74571
-384.622	1.95
-383.551	2.07429
-382.481	2.34571
-381.412	2.49286
-380.342	3.12286
-379.272	3.66429
-378.203	4.23286
-377.134	5.12
-376.065	5.80429
-374.997	6.00429
-373.928	6.56571
-372.86	5.89857
-371.792	5.69429
-370.724	5.26286
-369.656	4.16429
-368.589	3.39143
-367.521	2.79429
-366.454	2.07429
-365.387	1.91571
-364.32	1.21143
-363.253	0.805714
-362.187	0.561429
-361.121	0.152857
-360.054	-0.0971429
-358.989	-0.21
-357.923	-0.422857
-356.857	-0.294286
-355.792	-0.371429
-354.727	-0.214286
-353.662	0.241429
-352.597	0.412857
-351.532	0.215714
-350.468	0.194286
-349.404	0.117143
-348.34	0.177143
-347.276	0.201429
-346.212	-0.0228571
-345.149	-0.0328571
-344.086	0.152857
-343.022	0.237143
-341.959	0.187143
-340.897	0.124286
-339.834	-0.0942857
-338.772	-0.374286
-337.71	-0.588571
-336.648	-0.381429
-335.586	-0.577143
-334.524	-0.74
-333.463	-0.72
-332.401	-0.42
-331.34	-0.145714
-330.28	-0.198571
-329.219	-0.264286
-328.158	-0.372857
-327.098	-0.0857143
-326.038	-0.282857
-324.978	-0.555714
-323.918	-0.748571
-322.859	-0.834286
-321.799	-1.00286
-320.74	-0.714286
-319.681	-0.857143
-318.622	-0.757143
-317.563	-0.652857
-316.505	-0.744286
-315.447	-0.635714
-314.389	-0.725714
-313.331	-0.73
-312.273	-0.764286
-311.215	-0.507143
-310.158	-0.577143
-309.1	-0.638571
-308.044	-0.562857
-306.987	-0.361429
-305.93	-0.428571
-304.874	-0.264286
-303.817	-0.511429
-302.761	-0.645714
-301.705	-0.16
-300.649	-0.431429
-299.594	-0.424286
-298.539	-0.404286
-297.483	-0.212857
-296.429	-0.211429
-295.374	-0.0257143
-294.319	-0.392857
-293.265	-0.187143
-292.21	-0.384286
-291.156	-0.467143
-290.102	-0.701429
-289.048	-0.721429
-287.995	-0.688571
-286.942	-0.728571
-285.889	-0.597143
-284.836	-0.63
-283.783	-0.655714
-282.73	-0.651429
-281.678	-0.485714
-280.626	-0.655714
-279.573	-0.361429
-278.522	-0.614286
-277.47	-0.488571
-276.418	-0.46
-275.367	-0.467143
-274.316	-0.535714
-273.265	-0.327143
-272.214	-0.417143
-271.163	-0.408571
-270.113	-0.502857
-269.063	-0.67
-268.013	-0.745714
-266.963	-0.74
-265.913	-0.871429
-264.864	-0.955714
-263.814	-1.05143
-262.765	-0.975714
-261.716	-0.614286
-260.667	-0.487143
-259.619	-0.502857
-258.57	-0.437143
-257.522	-0.442857
-256.474	-0.292857
-255.426	-0.101429
-254.378	-0.151429
-253.331	-0.271429
-252.284	-0.21
-251.236	-0.142857
-250.19	-0.147143
-249.143	0.0714286
-248.096	0.131429
-247.05	0.0342857
-246.004	0.291429
-244.958	0.232857
-243.912	0.148571
-242.866	0.0114286
-241.821	-0.341429
-240.775	-0.487143
-239.73	-0.651429
-238.685	-0.767143
-237.64	-0.667143
-236.596	-0.494286
-235.551	-0.234286
-234.507	-0.234286
-233.463	-0.204286
-232.419	-0.164286
-231.375	-0.271429
-230.332	-0.368571
-229.288	-0.491429
-228.245	-0.591429
-227.202	-0.241429
-226.16	-0.291429
-225.117	-0.228571
-224.075	-0.171429
-223.032	-0.0757143
-221.99	-0.205714
-220.948	-0.0428571
-219.907	-0.228571
-218.865	-0.318571
-217.824	-0.444286
-216.783	-0.661429
-215.742	-0.624286
-214.701	-0.56
-213.66	-0.578571
-212.62	-0.587143
-211.579	-0.498571
-210.539	-0.404286
-209.5	-0.0657143
-208.46	-0.194286
-207.42	0.00428571
-206.381	-0.204286
-205.342	-0.138571
-204.303	-0.21
-203.264	-0.0685714
-202.225	-0.118571
-201.187	-0.08
-200.148	-0.301429
-199.11	-0.31
-198.072	-0.498571
-197.035	-0.49
-195.997	-0.707143
-194.96	-0.634286
-193.923	-0.831429
-192.886	-0.901429
-191.849	-0.751429
-190.812	-0.728571
-189.775	-0.712857
-188.739	-0.355714
-187.703	-0.481429
-186.667	-0.281429
-185.631	-0.277143
-184.596	-0.411429
-183.56	-0.507143
-182.525	-0.565714
-181.49	-0.664286
-180.455	-0.97
-179.42	-0.948571
-178.386	-0.804286
-177.352	-0.745714
-176.318	-0.441429
-175.283	-0.442857
-174.25	-0.612857
-173.216	-0.498571
-172.183	-0.522857
-171.149	-0.412857
-170.116	-0.675714
-169.083	-0.732857
-168.051	-0.632857
-167.018	-0.46
-165.986	-0.43
-164.954	-0.22
-163.922	-0.397143
-162.89	-0.11
-161.858	-0.342857
-160.826	-0.311429
-159.795	-0.458571
-158.764	-0.324286
-157.733	-0.614286
-156.702	-0.66
-155.672	-0.755714
-154.641	-0.477143
-153.611	-0.484286
-152.581	-0.521429
-151.551	-0.467143
-150.521	-0.65
-149.492	-0.447143
-148.463	-0.488571
-147.434	-0.487143
-146.404	-0.501429
-145.376	-0.518571
-144.347	-0.582857
-143.319	-0.432857
-142.29	-0.607143
-141.262	-0.521429
-140.235	-0.711429
-139.207	-1.05286
-138.179	-0.89
-137.152	-1.05429
-136.125	-1.01714
-135.097	-0.708571
-134.07	-0.347143
-133.044	0.2
-132.017	0.54
-130.991	0.444286
-129.965	0.445714
-128.939	0.502857
-127.913	0.25
-126.887	-0.02
-125.862	-0.428571
-124.837	-0.644286
-123.812	-0.481429
-122.787	-0.364286
-121.762	-0.245714
-120.737	-0.281429
-119.713	-0.19
-118.689	-0.328571
-117.665	-0.19
-116.641	-0.262857
-115.617	-0.155714
-114.594	-0.332857
-113.571	-0.368571
-112.547	-0.317143
-111.525	-0.285714
-110.502	-0.308571
-109.479	-0.33
-108.457	-0.181429
-107.434	-0.19
-106.413	-0.0942857
-105.39	-0.391429
-104.369	-0.235714
-103.347	-0.217143
-102.326	-0.314286
-101.305	-0.545714
-100.283	-0.384286
-99.2627	-0.275714
-98.2421	-0.301429
-97.2216	-0.301429
-96.2013	-0.261429
-95.181	-0.218571
-94.1612	-0.138571
-93.1412	-0.23
-92.1216	-0.257143
-91.1021	-0.334286
-90.0828	-0.612857
-89.0639	-0.621429
-88.0448	-0.525714
-87.0261	-0.611429
-86.0075	-0.61
-84.9891	-0.478571
-83.9711	-0.448571
-82.9529	-0.378571
-81.9352	-0.461429
-80.9175	-0.451429
-79.9	-0.594286
-78.8826	-0.557143
-77.8653	-0.717143
-76.8484	-0.714286
-75.8317	-0.605714
-74.8151	-0.517143
-73.7986	-0.455714
-72.7822	-0.407143
-71.7662	-0.542857
-70.75	-0.55
-69.7343	-0.425714
-68.7187	-0.492857
-67.7036	-0.521429
-66.6882	-0.728571
-65.6733	-0.794286
-64.6581	-0.654286
-63.6434	-0.76
-62.6288	-0.66
-61.6147	-0.574286
-60.6003	-0.465714
-59.5865	-0.56
-58.5727	-0.512857
-57.559	-0.527143
-56.5454	-0.464286
-55.5319	-0.524286
-54.5189	-0.564286
-53.5061	-0.46
-52.4933	-0.515714
-51.4806	-0.287143
-50.468	-0.411429
-49.456	-0.0771429
-48.4436	0.0171429
-47.4317	0.178571
-46.42	-0.194286
-45.4087	0.0314286
-44.3971	-0.184286
-43.3861	-0.0857143
-42.3747	-0.37
-41.3639	-0.434286
-40.3531	-0.71
-39.3428	-0.355714
-38.3323	-0.671429
-37.3222	-0.6
-36.3123	-0.605714
-35.3024	-0.645714
-34.2927	-0.614286
-33.283	-0.662857
-32.2739	-0.798571
-31.2648	-0.617143
-30.2559	-0.351429
-29.247	-0.48
-28.2383	-0.518571
-27.23	-0.524286
-26.2215	-0.268571
-25.2134	-0.26
-24.2055	-0.0971429
-23.1976	-0.517143
-22.1903	-0.652857
-21.1827	-0.458571
-20.1755	-0.521429
-19.1685	-0.615714
-18.1615	-0.351429
-17.1551	0.0514286
-16.1483	0.538571
-15.1421	1.57714
-14.1359	1.61286
-13.1299	0.988571
-12.124	0.55
-11.1181	-0.531429
-10.1128	-1.27286
-9.10753	-1.31857
-8.10239	-1.93
-7.09735	-1.84714
-6.09241	-0.927143
-5.08758	-0.417143
-4.08323	0.832857
-3.07899	1.23714
-2.07485	1.90714
-1.07081	3.51143
-0.0672527	3.37
0.936578	2.33857
1.93993	1.33714
2.94317	0.177143
3.94631	-0.108571
4.94935	-1.08143
5.95191	-2.61857
6.95474	-2.84714
7.95709	-1.97571
8.95934	-1.1
9.96111	-0.605714
10.9631	-0.394286
11.9647	-0.08
12.9665	-0.284286
13.9679	-0.08
14.9691	-0.325714
15.9699	-0.28
16.971	-0.165714
17.9715	-0.178571
18.972	-0.497143
19.9723	-0.47
20.9726	-0.598571
21.9727	-0.538571
22.9724	-0.75
23.972	-0.605714
24.9714	-0.764286
25.9708	-0.765714
26.9701	-0.55
27.9692	-0.814286
28.9679	-0.684286
29.9665	-0.31
30.9649	-0.49
31.9633	-0.304286
32.9612	-0.22
33.9594	-0.518571
34.9571	-0.0442857
35.9546	-0.147143
36.9521	-0.248571
37.9495	-0.291429
38.9464	-0.548571
39.9436	-0.654286
40.9402	-0.494286
41.9368	-0.46
42.9333	-0.422857
43.9293	-0.855714
44.9256	-0.991429
45.9214	-0.974286
46.9171	-0.92
47.9127	-0.852857
48.9078	-1.09143
49.9032	-1.08
50.8982	-0.734286
51.8934	-0.56
52.8877	-0.457143
53.8823	-0.477143
54.8768	-0.584286
55.8708	-0.694286
56.8651	-0.735714
57.859	-0.618571
58.8527	-0.478571
59.846	-0.355714
60.8395	-0.257143
61.8325	-0.182857
62.8255	-0.114286
63.8183	-0.0542857
64.811	-0.0885714
65.8037	-0.25
66.7958	-0.354286
67.7879	-0.475714
68.7799	-0.587143
69.7717	-0.458571
70.7635	-0.642857
71.7551	-0.755714
72.7463	-0.634286
73.7374	-0.841429
74.7283	-0.461429
75.7192	-0.607143
76.7096	-0.788571
77.7003	-0.738571
78.6905	-0.735714
79.6806	-0.844286
80.6706	-0.468571
81.6604	-0.841429
82.6499	-0.937143
83.6395	-0.764286
84.6288	-0.73
85.6179	-0.587143
86.6069	-0.424286
87.5954	-0.585714
88.5842	-0.524286
89.5725	-0.26
90.5608	-0.302857
91.5489	-0.288571
92.5369	-0.41
93.5245	-0.362857
94.5123	-0.428571
95.4997	-0.258571
96.4869	-0.455714
97.4741	-0.301429
98.4607	-0.271429
99.4477	-0.178571
100.434	-0.244286
101.421	-0.172857
102.407	-0.358571
103.393	-0.454286
104.379	-0.517143
105.364	-0.508571
106.35	-0.408571
107.336	-0.454286
108.32	-0.445714
109.306	-0.284286
110.291	0.142857
111.275	-0.107143
112.26	-0.0514286
113.244	-0.162857
114.228	-0.0928571
115.212	-0.0342857
116.196	-0.155714
117.18	-0.325714
118.164	-0.0428571
119.147	-0.0971429
120.13	-0.191429
121.113	-0.302857
122.096	-0.428571
123.079	-0.504286
124.061	-0.47
125.044	-0.575714
126.026	-0.597143
127.008	-0.422857
127.99	-0.377143
128.971	-0.0828571
129.953	-0.0228571
130.934	0.222857
131.915	0.252857
132.897	0.19
133.878	0.187143
134.858	0.338571
135.839	0.227143
136.819	0.245714
137.799	0.0514286
138.779	0.0957143
139.759	0.21
140.739	0.221429
141.718	0.352857
142.698	0.284286
143.677	0.321429
144.656	0.231429
145.635	0.0842857
146.613	0.26
147.592	0.339151
148.57	0.28174
149.548	0.473479
150.526	0.628654
151.504	0.841551
152.482	1.11217
153.46	1.12622
154.437	1.14027
155.414	1.15432
156.391	1.16837
157.368	1.18241
158.345	1.19645
159.321	1.21049
160.297	1.22452
161.274	1.23856
162.25	1.25259
163.226	1.26662
164.201	1.28064
165.177	1.29467
166.152	1.30869
167.128	1.32271
168.102	1.13976
169.077	0.954804
170.052	0.767848
171.026	0.578889
172.001	0.387928
172.975	0.194965
173.949	0
174.923	0
175.897	0
176.87	0
177.844	0
178.817	0.215045
179.79	0.215045
180.763	0.335885
181.736	0.797554
182.708	1.01851
183.68	1.26734
184.653	1.67174
185.624	2.05886
186.597	2.68281
187.568	3.2647
188.54	3.44924
189.511	4.39859
190.482	5.07679
191.453	5.0778
192.424	4.93706
193.395	4.78311
194.365	4.24466
195.336	3.8956
196.306	2.96673
197.276	2.10398
198.246	1.28714
199.216	0.648571
200.186	0.225714
201.155	0.0385714
202.124	0.175714
203.093	0.0957143
204.062	0.554286
205.031	1.50714
205.999	2.57143
206.968	2.94143
207.936	3.50286
208.904	4.22571
209.872	4.84429
210.84	4.98429
211.807	5.22429
212.775	5.49286
213.742	6.32714
214.709	6.80571
215.676	6.56857
216.643	7.21857
217.609	7.81143
218.576	8.59
219.542	9.21857
220.508	9.37143
221.474	10.4614
222.44	12.2271
223.406	14.0771
224.371	16.8071
225.336	19.9086
226.301	23.1243
227.266	26.2171
228.231	28.6529
229.196	29.87
230.16	30.1229
231.124	29.62
232.089	28.2614
233.053	26.2857
234.016	25.0386
234.98	23.5586
235.943	22.7543
236.907	22.2729
237.87	21.5229
238.833	20.5386
239.796	19.9243
240.759	19.1857
241.721	18.2229
242.683	17.3614
243.646	16.0014
244.607	15.37
245.569	14.6729
246.531	13.9829
247.493	13.8671
248.454	13.2514
249.415	12.7814
250.376	12.9329
251.337	12.4357
252.298	12.6071
253.259	12.3643
254.219	11.5357
255.179	11.6243
256.139	11.2814
257.099	10.9957
258.059	11.5057
259.018	11.5957
259.978	12.2371
260.937	12.74
261.896	13.4314
262.855	13.7771
263.814	13.9643
264.772	13.3043
265.731	12.5686
266.689	11.5557
267.647	10.7814
268.605	9.69571
269.563	9.57429
270.52	8.98571
271.478	8.97
272.435	9.45429
273.392	9.98
274.349	10.0657
275.306	10.4486
276.263	10.5257
277.219	11.0714
278.175	11.4557
279.131	10.9829
280.088	11.2286
281.043	11.7829
281.999	12.3114
282.955	13.0886
283.91	13.94
284.865	14.7371
285.82	16.24
286.775	17.83
287.73	19.6343
288.684	21.7043
289.638	23.2429
290.593	25.6243
291.547	28.2371
292.501	31.6586
293.454	33.8486
294.408	35.31
295.362	35.1914
296.315	34.4957
297.268	32.2129
298.221	29.8486
299.173	26.3329
300.126	23.9214
301.078	21.7643
302.031	21.14
302.983	21.9286
303.935	23.6329
304.886	25.8986
305.838	28.1543
306.79	30.4686
307.741	32.4714
308.692	34.27
309.643	35.6371
310.594	37.5729
311.545	39.2586
312.495	42.6671
313.446	45.7586
314.396	50.4229
315.346	55.8357
316.296	61.4157
317.245	66.8957
318.195	71.7714
319.144	74.8086
320.093	76.5129
321.043	76.8914
321.991	76.6957
322.94	75.2271
323.889	72.8071
324.837	70.6643
325.785	68.4343
326.733	67.2043
327.681	66.55
328.629	66.2357
329.577	67.0229
330.524	68.8714
331.471	72.1829
332.419	76.54
333.365	82.1286
334.313	88.09
335.259	94.7514
336.206	103.454
337.152	112.133
338.098	121.961
339.044	133.33
339.99	147.211
340.936	163.479
341.881	182.244
342.826	203.373
343.772	226.917
344.717	252.107
345.662	277.256
346.606	299.639
347.551	317.589
348.495	328.553
349.44	332.346
350.384	328.261
351.328	314.804
352.271	294.251
353.215	265.896
354.158	232.984
355.102	199.499
356.045	165.76
356.988	135.136
357.931	107.849
358.873	85.0471
359.816	68.9714
360.758	58.05
361.701	50.9486
362.643	46.0329
363.584	41.9943
364.526	39.3557
365.468	37.0486
366.409	34.2529
367.35	31.7557
368.291	29.3386
369.232	27.2886
370.173	25.1471
371.113	23.3871
372.054	21.9229
372.994	20.9286
373.934	20.6957
374.874	19.7329
375.814	18.9657
376.754	18.6414
377.693	18.0657
378.632	16.9386
379.572	15.7529
380.51	14.1414
381.45	13.5257
382.388	12.7629
383.327	12.2043
384.265	11.7614
385.203	11.5586
386.141	11.6786
387.079	12.11
388.017	11.2771
388.955	10.5871
389.892	9.96
390.829	9.13143
391.766	8.92143
392.703	8.55429
393.64	8.20286
394.577	8.98857
395.513	9.52429
396.45	10.8671
397.386	12.19
398.322	13.54
399.258	14.4829
400.193	15.9943
401.129	17.4814
402.064	19.9943
402.999	22.4157
403.934	25.8671
404.869	30.32
405.804	36.6543
406.738	43.6357
407.673	53.8043
408.607	67.2814
409.541	84.1786
410.475	105.661
411.409	129.329
412.343	150.114
413.276	164.039
414.209	167.501
415.143	162.081
416.076	149.724
417.009	128.446
417.941	102.666
418.874	77.7414
419.806	57.1129
420.739	43.4229
421.67	34.1429
422.602	27.4329
423.534	24.2371
424.466	21.5643
425.397	19.3514
426.328	18.0786
427.26	16.7086
428.191	15.2986
429.121	14.06
430.052	12.9786
430.982	11.84
431.913	11.48
432.843	11.0714
433.773	10.1671
434.703	9.77143
435.633	9.25857
436.562	8.61143
437.491	8.3
438.421	7.78
439.35	6.93
440.279	7.11714
441.208	7.16429
442.136	7.34286
443.065	7.56143
443.993	7.64286
444.921	7.05714
445.849	6.67429
446.777	5.83
447.705	4.77
448.632	4.15571
449.559	3.74857
450.487	3.60714
451.414	3.48857
452.341	3.69286
453.267	4.01143
454.194	4.85429
455.12	5.29857
456.047	4.87429
456.973	4.44429
457.899	3.86
458.825	3.52714
459.75	3.52286
460.676	2.57286
461.601	2.14143
462.526	2.15
463.451	2.14714
464.376	2.31143
465.301	2.32286
466.226	1.78143
467.15	2.58286
468.074	2.50286
468.998	2.43143
469.922	2.78429
470.846	3.01286
471.769	3.04286
472.693	3.99286
473.616	3.69571
474.54	3.93714
475.463	4.19286
476.386	3.94429
477.308	3.92571
478.23	3.83429
479.153	3.24286
480.075	3.27429
480.997	3.27571
481.919	3.33429
482.841	3.68857
483.763	4.16143
484.684	5.08429
485.606	5.81
486.526	6.37143
487.448	6.29143
488.368	6.57143
489.289	6.35429
490.209	6.58
491.13	6.46143
492.05	6.25286
492.97	6.32429
493.89	7.06286
494.81	7.56429
495.73	8.48571
496.649	8.56286
497.568	8.64286
498.487	8.53714
499.406	7.97714
500.325	7.91286
501.244	7.86857
502.163	7.78714
503.081	8.31857
503.999	8.98286
504.917	10.0314
505.835	11.6243
506.753	12.49
507.67	13.3314
508.588	13.3814
509.505	13.3371
510.422	13.6157
511.339	14.2871
512.256	14.75
513.173	15.48
514.089	16.59
515.005	18.1971
515.922	19.7043
516.838	20.66
517.754	21.0314
518.67	21.4671
519.585	21.46
520.501	20.6714
521.416	20.0386
522.331	19.1
523.246	18.8286
524.161	17.6414
525.075	16.4043
525.99	15.0229
526.904	13.9986
527.819	12.2043
528.733	10.8829
529.647	9.29286
530.56	8.60286
531.474	8.10714
532.388	8.01
533.301	7.42571
534.214	7.79
535.127	7.93857
536.04	7.70571
536.952	7.32286
537.865	6.25857
538.777	5.65714
539.69	5.34571
540.602	4.51429
541.514	3.83714
542.425	3.32714
543.337	2.96143
544.248	2.48286
545.16	1.53
546.071	0.711429
546.982	0.535714
547.893	-0.337143
548.803	-1.53857
549.714	-2.08571
550.624	-2.18571
551.535	-2.14429
552.445	-2.16571
553.355	-2.09286
554.264	-1.71143
555.174	-1.62286
556.083	-1.35
556.993	-1.04429
557.902	-1.21429
558.811	-1.19143
559.72	-0.727143
560.629	0.187143
561.537	1.57429
562.446	2.34429
563.354	3.34286
564.262	5.20143
565.17	7.06286
566.078	8.04143
566.985	9.30143
567.893	10.9057
568.8	12.0471
569.707	13.6614
570.614	15.0271
571.521	16.2343
572.428	17.9914
573.335	19.72
574.241	21.4671
575.147	23.5186
576.053	24.95
576.96	25.3214
577.866	25.6443
578.771	24.2571
579.677	21.7614
580.582	19.1
581.487	15.8843
582.392	12.4986
583.297	9.01571
584.202	5.67143
585.107	3.72143
586.011	2.63714
586.915	0.567143
587.82	-0.365714
588.724	-1.16
589.627	-1.50286
590.531	-1.65571
591.435	-2.28286
592.338	-2.85
593.241	-2.68
594.145	-2.81286
595.048	-3.05857
595.95	-3.24714
596.853	-4.17143
597.755	-4.37857
598.658	-4.75571
599.56	-4.72714
600.462	-5.47143
601.364	-5.71286
602.266	-5.15429
603.167	-4.34857
604.069	-4.06286
604.97	-4.05714
605.871	-4.64286
606.772	-4.94286
607.673	-5.44143
608.574	-6.44286
609.474	-7.04857
610.375	-7.64
611.275	-7.69429
612.175	-8.02286
613.075	-7.91571
613.975	-7.64286
614.874	-7.42714
615.774	-7.03
616.673	-6.69
617.572	-7.03714
618.472	-6.76429
619.37	-6.85571
620.269	-7.38571
621.168	-7.47
622.066	-7.67429
622.964	-7.96857
623.863	-8.06429
624.76	-7.78
625.658	-7.81143
626.556	-7.38
627.453	-7.30286
628.351	-7.79286
629.248	-7.73
630.145	-7.65714
631.042	-7.71857
631.939	-7.14429
632.836	-7.23857
633.732	-6.94714
634.628	-6.68
635.525	-6.5
636.421	-6.45
637.317	-6.40143
638.212	-6.82857
639.108	-6.59
640.003	-6.72286
640.899	-6.45286
641.794	-5.52714
642.689	-4.48286
643.584	-3.6
